         0 -2.27422e-06
  0.000445 -2.27422e-06
  0.001335 -1.35405e-05
  0.002225 -3.2993e-05
  0.003115 -5.69577e-05
  0.004005 -8.17319e-05
  0.004895 -0.00010442
  0.005785 -0.000123379
  0.006675 -0.000138246
0.00756867 -0.000149559
0.00852095 -0.000157259
0.00958982 -0.000166245
 0.0107896 -0.000174559
 0.0121362 -0.000180039
 0.0136477 -0.00018041
 0.0153442 -0.000172996
 0.0172484 -0.000153934
 0.0193858 -0.000119269
 0.0217849 -6.91758e-05
 0.0244777 -3.18157e-05
 0.0275001 -2.49035e-05
 0.0308926 -1.80735e-05
 0.0347005 -7.48101e-06
 0.0389746 1.73982e-06
 0.0437719 1.92832e-05
 0.0491566 2.71582e-05
 0.0552005 2.60503e-06
 0.0619844 -8.302e-06
 0.0695988 -2.19478e-06
 0.0781455 -9.45354e-06
 0.0877386 1.7415e-05
 0.0985062 3.3074e-05
  0.110592 2.83339e-05
  0.124158 3.42062e-05
  0.139384 1.6796e-05
  0.156474 1.64971e-05
  0.175657 3.05006e-05
  0.197189 1.95069e-05
  0.221357 -1.07942e-05
  0.248483 1.38972e-05
  0.278931 -1.78686e-05
  0.314615 5.87557e-06
   0.35378 -3.61044e-05
  0.392945 -3.79487e-06
   0.43211 1.73601e-05
  0.471275 1.88647e-05
   0.51044 -1.75466e-05
  0.549604 4.80036e-06
  0.588769 -7.79414e-07
  0.627934 4.6719e-06
  0.667099 2.12552e-06
  0.706264 1.01118e-06
  0.745429 1.58067e-05
  0.784593 2.30776e-05
  0.823758 2.04922e-05
  0.862923 5.62142e-06
  0.902088 9.30166e-06
  0.941253 1.11801e-05
  0.980418 9.34722e-06
   1.01958 2.06833e-06
   1.05875 -4.72248e-06
   1.09791 -5.46013e-06
   1.13708 3.47619e-06
   1.17624 1.00472e-05
   1.21541 1.81407e-06
   1.25457 -2.67901e-05
   1.29374 -2.35983e-05
    1.3329 -3.26641e-05
   1.37207 -3.05762e-05
   1.41123 -2.51516e-05
    1.4504 -1.05067e-05
   1.48956 -1.41883e-07
   1.52873 1.19131e-05
   1.56789 3.22176e-05
   1.60706 2.51633e-05
   1.64622 4.92657e-05
   1.68539 -1.09393e-05
   1.72107 -1.25747e-05
   1.75152 -3.15175e-05
   1.77865 -2.35541e-05
   1.80281 -5.23562e-08
   1.82434 3.55105e-05
   1.84353 5.89864e-05
   1.86062 4.23564e-05
   1.87584 3.52483e-05
   1.88941 4.29193e-05
    1.9015 1.96339e-05
   1.91226 2.42076e-05
   1.92186 1.67113e-05
    1.9304 2.17533e-05
   1.93802 1.61624e-05
    1.9448 -5.84818e-06
   1.95084 -2.89606e-05
   1.95623 -3.18118e-05
   1.96103 -5.9315e-05
    1.9653 -5.126e-05
   1.96911 -2.83197e-05
    1.9725 -3.54677e-05
   1.97552 -5.93122e-05
   1.97822 -9.11428e-05
   1.98061 -0.000123196
   1.98275 -0.000147038
   1.98466 -0.000163282
   1.98635 -0.000180613
   1.98786 -0.000197758
   1.98921 -0.000209079
   1.99041 -0.000211511
   1.99148 -0.000205469
   1.99243 -0.000195935
   1.99333 -0.000176554
   1.99421 -0.000152799
    1.9951 -0.00012502
     1.996 -9.48424e-05
   1.99689 -6.45075e-05
   1.99777 -3.67519e-05
   1.99867 -1.49882e-05
   1.99956 -2.60266e-06
         2 -2.60266e-06
