         0 -0.00126184
  0.000445 -0.00126184
  0.001335 -0.00890285
  0.002225 -0.0241719
  0.003115 -0.0458234
  0.004005 -0.0712099
  0.004895 -0.0968013
  0.005785  -0.119221
  0.006675  -0.136008
0.00756867  -0.146162
0.00852095  -0.147916
0.00958982  -0.144023
 0.0107896   -0.13348
 0.0121362  -0.117782
 0.0136477 -0.0990837
 0.0153442 -0.0798383
 0.0172484  -0.061928
 0.0193858 -0.0465765
 0.0217849 -0.0341403
 0.0244777 -0.0245194
 0.0275001 -0.0172514
 0.0308926 -0.0118576
 0.0347005 -0.00786567
 0.0389746 -0.00490484
 0.0437719 -0.00271463
 0.0491566 -0.00110086
 0.0552005 9.91016e-05
 0.0619844 0.000957427
 0.0695988 0.00149033
 0.0781455 0.00181034
 0.0877386 0.00199821
 0.0985062 0.00210807
  0.110592 0.00216848
  0.124158 0.00221064
  0.139384 0.00223504
  0.156474  0.0022307
  0.175657 0.00233285
  0.197189 0.00220493
  0.221357 0.00235313
  0.248483 0.00207792
  0.278931 0.00235974
  0.314615  0.0022316
   0.35378  0.0021861
  0.392945 0.00231053
   0.43211 0.00221536
  0.471275 0.00226608
   0.51044 0.00222454
  0.549604 0.00223684
  0.588769 0.00223569
  0.627934 0.00223045
  0.667099 0.00223291
  0.706264 0.00223597
  0.745429 0.00222791
  0.784593 0.00224296
  0.823758 0.00222303
  0.862923 0.00223601
  0.902088  0.0022381
  0.941253 0.00223535
  0.980418 0.00224306
   1.01958 0.00223547
   1.05875 0.00224307
   1.09791  0.0022526
   1.13708  0.0022592
   1.17624 0.00226401
   1.21541 0.00228779
   1.25457  0.0022897
   1.29374   0.002309
    1.3329 0.00230747
   1.37207 0.00234414
   1.41123 0.00230867
    1.4504 0.00232557
   1.48956 0.00229344
   1.52873 0.00231608
   1.56789 0.00227738
   1.60706 0.00232478
   1.64622 0.00220551
   1.68539 0.00228973
   1.72107 0.00239086
   1.75152 0.00210111
   1.77865 0.00238851
   1.80281 0.00213861
   1.82434 0.00228193
   1.84353 0.00216538
   1.86062 0.00224984
   1.87584  0.0021707
   1.88941 0.00213525
    1.9015 0.00207873
   1.91226 0.00200765
   1.92186 0.00179155
    1.9304 0.00142026
   1.93802 0.000882061
    1.9448 7.72607e-05
   1.95084 -0.00111571
   1.95623 -0.00273676
   1.96103 -0.00491465
    1.9653 -0.00785281
   1.96911 -0.0119036
    1.9725 -0.0173678
   1.97552 -0.0246754
   1.97822 -0.0343351
   1.98061 -0.0468553
   1.98275 -0.0623494
   1.98466 -0.0804713
   1.98635  -0.100006
   1.98786  -0.119068
   1.98921  -0.135167
   1.99041  -0.146097
   1.99148  -0.150302
   1.99243  -0.148758
   1.99333  -0.138655
   1.99421  -0.121729
    1.9951 -0.0989801
     1.996 -0.0729058
   1.99689  -0.046964
   1.99777 -0.0247931
   1.99867 -0.00913653
   1.99956 -0.00129541
         2 -0.00129541
