         0 3.27918e-05
  0.000445 3.27918e-05
  0.001335 0.000398626
  0.002225 0.00146748
  0.003115 0.00336617
  0.004005 0.00611894
  0.004895 0.00954404
  0.005785  0.0135849
  0.006675   0.017874
0.00756867  0.0221814
0.00852095  0.0272032
0.00958982  0.0326973
 0.0107896  0.0382433
 0.0121362  0.0440806
 0.0136477  0.0495528
 0.0153442  0.0546252
 0.0172484  0.0587186
 0.0193858   0.061651
 0.0217849  0.0629948
 0.0244777  0.0626248
 0.0275001  0.0603687
 0.0308926  0.0563218
 0.0347005  0.0506538
 0.0389746  0.0437416
 0.0437719   0.035987
 0.0491566   0.027919
 0.0552005  0.0200995
 0.0619844  0.0130753
 0.0695988 0.00724413
 0.0781455 0.00270686
 0.0877386 -0.000470989
 0.0985062 -0.00233062
  0.110592 -0.00322459
  0.124158 -0.00356345
  0.139384 -0.00349428
  0.156474 -0.00337537
  0.175657 -0.00314542
  0.197189 -0.00281854
  0.221357 -0.00276101
  0.248483 -0.00208233
  0.278931 -0.00336382
  0.314615 -0.00231498
   0.35378 -0.00131232
  0.392945 -0.00227808
   0.43211 -0.00208046
  0.471275 -0.0021739
   0.51044 -0.00205753
  0.549604 -0.00192508
  0.588769 -0.00187292
  0.627934 -0.0018835
  0.667099  -0.001867
  0.706264 -0.00191453
  0.745429 -0.00182646
  0.784593 -0.00160935
  0.823758 -0.00141671
  0.862923 -0.00121803
  0.902088 -0.00092225
  0.941253 -0.000535983
  0.980418 -0.000153404
   1.01958 0.000180178
   1.05875 0.000560396
   1.09791 0.000923762
   1.13708 0.00119419
   1.17624 0.00137825
   1.21541 0.00157564
   1.25457 0.00169344
   1.29374 0.00174528
    1.3329 0.00182326
   1.37207 0.00206603
   1.41123 0.00200159
    1.4504 0.00203487
   1.48956  0.0020544
   1.52873 0.00203289
   1.56789  0.0020047
   1.60706 0.00208175
   1.64622  0.0011586
   1.68539 0.00234288
   1.72107  0.0034835
   1.75152 0.00236972
   1.77865 0.00312464
   1.80281 0.00294815
   1.82434  0.0033391
   1.84353 0.00352498
   1.86062 0.00372597
   1.87584 0.00369382
   1.88941 0.00340417
    1.9015 0.00246708
   1.91226 0.000560561
   1.92186 -0.0025011
    1.9304 -0.00698254
   1.93802 -0.0128762
    1.9448 -0.0199895
   1.95084 -0.0279275
   1.95623 -0.0361426
   1.96103 -0.0440862
    1.9653 -0.0511925
   1.96911 -0.0570174
    1.9725 -0.0611949
   1.97552 -0.0635671
   1.97822 -0.0640196
   1.98061 -0.0627072
   1.98275 -0.0597571
   1.98466 -0.0556126
   1.98635 -0.0504661
   1.98786 -0.0449092
   1.98921 -0.0389772
   1.99041 -0.0333387
   1.99148 -0.0277483
   1.99243 -0.0226353
   1.99333 -0.0182472
   1.99421 -0.0138744
    1.9951 -0.00975125
     1.996 -0.00625413
   1.99689 -0.00344163
   1.99777 -0.00150084
   1.99867 -0.000407806
   1.99956 -3.35619e-05
         2 -3.35619e-05
