         0 1.95348e-05
  0.000445 1.95348e-05
  0.001335 -0.000450875
  0.002225 -0.00141465
  0.003115 -0.00341778
  0.004005 -0.00606485
  0.004895 -0.00959461
  0.005785 -0.0135286
  0.006675 -0.0179235
0.00756867 -0.0221278
0.00852095 -0.0272358
0.00958982 -0.0326653
 0.0107896  -0.038254
 0.0121362 -0.0440596
 0.0136477 -0.0495513
 0.0153442  -0.054608
 0.0172484 -0.0587104
 0.0193858  -0.061635
 0.0217849 -0.0629831
 0.0244777 -0.0626093
 0.0275001 -0.0603552
 0.0308926 -0.0563064
 0.0347005 -0.0506395
 0.0389746 -0.0437266
 0.0437719 -0.0359732
 0.0491566 -0.0279059
 0.0552005 -0.0200885
 0.0619844 -0.0130664
 0.0695988 -0.00723791
 0.0781455 -0.00270309
 0.0877386 0.000472437
 0.0985062  0.0023305
  0.110592 0.00322324
  0.124158 0.00356183
  0.139384 0.00349244
  0.156474 0.00337405
  0.175657 0.00314412
  0.197189 0.00281824
  0.221357    0.00276
  0.248483 0.00208301
  0.278931 0.00336289
  0.314615  0.0023128
   0.35378 0.00131188
  0.392945  0.0022772
   0.43211 0.00207951
  0.471275 0.00217291
   0.51044 0.00205652
  0.549604 0.00192422
  0.588769 0.00187209
  0.627934 0.00188279
  0.667099 0.00186629
  0.706264 0.00191385
  0.745429 0.00182581
  0.784593 0.00160883
  0.823758 0.00141623
  0.862923 0.00121767
  0.902088 0.000921924
  0.941253 0.000535826
  0.980418 0.000153326
   1.01958 -0.000180092
   1.05875 -0.000560226
   1.09791 -0.000923418
   1.13708 -0.00119382
   1.17624 -0.00137776
   1.21541 -0.00157512
   1.25457 -0.00169279
   1.29374 -0.00174466
    1.3329 -0.0018225
   1.37207 -0.00206525
   1.41123 -0.00200074
    1.4504 -0.00203407
   1.48956 -0.00205351
   1.52873 -0.00203202
   1.56789 -0.00200375
   1.60706 -0.00208094
   1.64622 -0.00115819
   1.68539 -0.00234055
   1.72107 -0.00348265
   1.75152 -0.00237012
   1.77865 -0.00312344
   1.80281 -0.00294777
   1.82434 -0.00333756
   1.84353 -0.00352357
   1.86062 -0.00372406
   1.87584 -0.00369208
   1.88941 -0.00340282
    1.9015 -0.00246685
   1.91226 -0.000561882
   1.92186  0.0024973
    1.9304 0.00697625
   1.93802  0.0128671
    1.9448  0.0199783
   1.95084  0.0279141
   1.95623  0.0361284
   1.96103  0.0440707
    1.9653  0.0511778
   1.96911  0.0570015
    1.9725  0.0611811
   1.97552   0.063551
   1.97822  0.0640077
   1.98061  0.0626906
   1.98275   0.059749
   1.98466  0.0555945
   1.98635  0.0504653
   1.98786  0.0448866
   1.98921  0.0389898
   1.99041  0.0333034
   1.99148  0.0277854
   1.99243  0.0225753
   1.99333  0.0183038
   1.99421  0.0138109
    1.9951   0.009809
     1.996 0.00619269
   1.99689 0.00350051
   1.99777  0.0014407
   1.99867 0.000467345
   1.99956 -2.60547e-05
         2 -2.60547e-05
