         0 -1.27078e-05
  0.000445 -1.27078e-05
  0.001335 -1.26015e-05
  0.002225 -1.58752e-05
  0.003115 -2.88687e-05
  0.004005 -1.21708e-05
  0.004895 -2.76004e-05
  0.005785 -9.77285e-06
  0.006675 1.30817e-05
0.00756867 2.01775e-05
0.00852095 1.62772e-05
0.00958982 9.57287e-07
 0.0107896 1.23003e-05
 0.0121362 1.64316e-05
 0.0136477 -7.35084e-06
 0.0153442 -2.46913e-06
 0.0172484 -2.0755e-05
 0.0193858 -3.2371e-05
 0.0217849 -5.36823e-05
 0.0244777 -7.24651e-05
 0.0275001 -5.98448e-06
 0.0308926 -1.66465e-05
 0.0347005 -1.653e-06
 0.0389746 -3.57344e-06
 0.0437719 -8.91338e-06
 0.0491566 -2.98541e-05
 0.0552005 -1.92538e-06
 0.0619844 9.74781e-06
 0.0695988 -5.52098e-06
 0.0781455 -7.39045e-06
 0.0877386 -1.58902e-05
 0.0985062 -3.42152e-05
  0.110592 -3.87689e-05
  0.124158 -2.12595e-05
  0.139384 -1.74779e-05
  0.156474 -9.28196e-06
  0.175657 -2.05064e-05
  0.197189 -3.22011e-06
  0.221357 -7.64484e-06
  0.248483 1.47159e-07
  0.278931 2.81271e-06
  0.314615 1.07574e-05
   0.35378 2.01079e-05
  0.392945 1.36027e-05
   0.43211 -2.63577e-05
  0.471275 -2.45138e-05
   0.51044 -1.06121e-06
  0.549604 -1.47548e-05
  0.588769 -1.047e-05
  0.627934 -8.1014e-06
  0.667099 -3.43665e-06
  0.706264 -2.61152e-06
  0.745429 -2.94139e-06
  0.784593 -6.13536e-06
  0.823758 -4.72327e-06
  0.862923 2.34692e-06
  0.902088 2.06151e-07
  0.941253 -2.24051e-06
  0.980418 -5.30337e-06
   1.01958 -4.94578e-06
   1.05875 -1.99125e-06
   1.09791 -2.32693e-06
   1.13708 -1.24767e-05
   1.17624 -1.06423e-05
   1.21541 -1.08278e-05
   1.25457 -1.93216e-06
   1.29374 1.01301e-06
    1.3329 -1.13095e-07
   1.37207 1.35852e-05
   1.41123 9.30927e-06
    1.4504 9.40166e-06
   1.48956 -1.05762e-05
   1.52873 -2.88706e-05
   1.56789 -2.92381e-05
   1.60706 -1.03836e-05
   1.64622 -1.89334e-05
   1.68539 4.51726e-06
   1.72107 1.75919e-05
   1.75152 2.87033e-05
   1.77865 1.98739e-05
   1.80281 9.03053e-06
   1.82434 -1.36299e-05
   1.84353 -1.2347e-05
   1.86062 -1.89638e-05
   1.87584 -2.11122e-05
   1.88941 -2.02745e-05
    1.9015 -2.65787e-05
   1.91226 -6.81959e-06
   1.92186 -6.53674e-06
    1.9304 -9.11856e-06
   1.93802 -1.3356e-05
    1.9448 6.95669e-06
   1.95084 1.76633e-05
   1.95623 3.11318e-07
   1.96103 6.07865e-05
    1.9653 5.11592e-05
   1.96911 5.14062e-05
    1.9725 5.69651e-05
   1.97552 6.39211e-05
   1.97822 4.91732e-05
   1.98061 7.19178e-05
   1.98275 7.91532e-05
   1.98466 5.69818e-05
   1.98635 4.21816e-05
   1.98786 3.28743e-05
   1.98921 2.50994e-05
   1.99041 3.30129e-05
   1.99148 2.45401e-05
   1.99243 2.39555e-05
   1.99333 2.08171e-05
   1.99421 1.99321e-05
    1.9951 1.99523e-05
     1.996  1.968e-05
   1.99689 2.1809e-05
   1.99777 2.17917e-05
   1.99867 2.17772e-05
   1.99956 2.17772e-05
         2 2.17772e-05
