         0 1.29074e-05
  0.000445 1.29074e-05
  0.001335 1.28933e-05
  0.002225 1.08728e-05
  0.003115 1.21896e-05
  0.004005 1.61688e-05
  0.004895 1.54839e-05
  0.005785 1.35412e-05
  0.006675 -2.95176e-05
0.00756867 -2.34505e-05
0.00852095 -1.69547e-05
0.00958982 5.60907e-06
 0.0107896 -7.60786e-07
 0.0121362 1.80354e-05
 0.0136477 2.31648e-05
 0.0153442 1.9453e-05
 0.0172484 1.67658e-05
 0.0193858 1.86683e-05
 0.0217849 1.30608e-05
 0.0244777 1.48199e-05
 0.0275001 4.40224e-05
 0.0308926 3.87135e-05
 0.0347005 2.38315e-05
 0.0389746 1.29745e-05
 0.0437719 9.35291e-06
 0.0491566 1.40841e-05
 0.0552005 9.16068e-06
 0.0619844 -1.21383e-05
 0.0695988 -1.03669e-05
 0.0781455 7.24427e-07
 0.0877386 1.88048e-05
 0.0985062 1.87787e-06
  0.110592 -5.81916e-06
  0.124158 -7.17774e-06
  0.139384 -1.72693e-05
  0.156474 -2.1379e-05
  0.175657 -4.41831e-05
  0.197189 -1.13447e-05
  0.221357 -1.4296e-05
  0.248483 -1.14956e-05
  0.278931 -4.12778e-06
  0.314615 -3.43922e-06
   0.35378 -1.03574e-05
  0.392945 -1.07589e-05
   0.43211 -1.12174e-05
  0.471275 -9.63379e-06
   0.51044 -7.82385e-06
  0.549604 -1.04608e-05
  0.588769 -9.02423e-06
  0.627934 -8.48576e-06
  0.667099 -9.39851e-06
  0.706264 -6.78309e-06
  0.745429 -3.30364e-06
  0.784593 -1.49021e-06
  0.823758 -2.17252e-06
  0.862923 -2.00512e-06
  0.902088 -2.20287e-06
  0.941253 -2.68238e-06
  0.980418 -2.88521e-06
   1.01958 -7.15765e-07
   1.05875 -7.9918e-07
   1.09791 3.24631e-07
   1.13708 2.89177e-06
   1.17624 2.47246e-06
   1.21541 2.26518e-06
   1.25457 1.8155e-06
   1.29374 4.24955e-06
    1.3329 4.22397e-06
   1.37207 3.4427e-06
   1.41123 4.33688e-06
    1.4504 3.0046e-06
   1.48956 -3.62699e-06
   1.52873 -7.63382e-06
   1.56789 9.87856e-06
   1.60706 2.16355e-05
   1.64622 1.75414e-05
   1.68539 -5.37021e-06
   1.72107 -8.72419e-06
   1.75152 1.50085e-05
   1.77865 6.04463e-06
   1.80281 2.53253e-05
   1.82434 3.16903e-05
   1.84353 2.53212e-05
   1.86062 3.33867e-05
   1.87584 2.45374e-05
   1.88941 4.05513e-05
    1.9015 3.47873e-05
   1.91226 3.61736e-06
   1.92186 7.02802e-06
    1.9304 3.15903e-05
   1.93802 3.43895e-05
    1.9448 3.36073e-05
   1.95084 2.82294e-05
   1.95623 2.5166e-05
   1.96103 -6.44215e-08
    1.9653 -8.32564e-06
   1.96911 -1.00133e-05
    1.9725 -5.68436e-06
   1.97552 -2.21817e-05
   1.97822 -2.89936e-05
   1.98061 -1.48304e-05
   1.98275 1.09927e-05
   1.98466 3.69147e-05
   1.98635 1.57741e-05
   1.98786 2.20225e-05
   1.98921 2.70937e-05
   1.99041 1.8325e-05
   1.99148 2.94652e-05
   1.99243 -1.0955e-06
   1.99333 2.07577e-05
   1.99421 1.17156e-05
    1.9951 4.26562e-06
     1.996 1.36062e-05
   1.99689 1.2741e-05
   1.99777 1.38133e-05
   1.99867 1.61748e-05
   1.99956 1.61722e-05
         2 1.61722e-05
