         0    1.04598
  0.000445    1.04598
  0.001335   -1.04628
  0.002225    1.04689
  0.003115   -1.04778
  0.004005    1.04894
  0.004895   -1.05031
  0.005785    1.05179
  0.006675   -1.04889
0.00756867   0.976729
0.00852095  -0.732617
0.00958982   0.517995
 0.0107896  -0.365876
 0.0121362   0.258059
 0.0136477  -0.181701
 0.0153442   0.127664
 0.0172484 -0.0894649
 0.0193858  0.0624932
 0.0217849 -0.0434827
 0.0244777  0.0301449
 0.0275001 -0.0208008
 0.0308926  0.0142721
 0.0347005 -0.00972942
 0.0389746 0.00657117
 0.0437719 -0.00441502
 0.0491566 0.00296617
 0.0552005 -0.00197709
 0.0619844 0.00130181
 0.0695988 -0.000848261
 0.0781455 0.000540718
 0.0877386 -0.000336523
 0.0985062 0.000204398
  0.110592 -0.000109189
  0.124158 3.73836e-05
  0.139384 6.49041e-06
  0.156474 -2.45937e-05
  0.175657 2.73359e-05
  0.197189 -2.39242e-05
  0.221357 1.87122e-05
  0.248483 -1.3533e-05
  0.278931 9.4867e-06
  0.314615 -6.93848e-06
   0.35378 7.9818e-06
  0.392945 -9.99089e-06
   0.43211 1.18132e-05
  0.471275 -1.3005e-05
   0.51044 1.37599e-05
  0.549604 -1.46658e-05
  0.588769 1.58817e-05
  0.627934 -1.7158e-05
  0.667099 1.83604e-05
  0.706264 -1.95637e-05
  0.745429 2.06792e-05
  0.784593 -2.13777e-05
  0.823758 2.15774e-05
  0.862923 -2.15568e-05
  0.902088 2.15279e-05
  0.941253 -2.14349e-05
  0.980418 2.11311e-05
   1.01958 -2.0477e-05
   1.05875 1.93714e-05
   1.09791 -1.7891e-05
   1.13708 1.62467e-05
   1.17624 -1.45425e-05
   1.21541 1.26668e-05
   1.25457 -1.05174e-05
   1.29374 8.24351e-06
    1.3329 -6.06267e-06
   1.37207 4.02787e-06
   1.41123 -2.04532e-06
    1.4504 -8.92434e-08
   1.48956 2.57795e-06
   1.52873 -5.30803e-06
   1.56789 7.88387e-06
   1.60706 -1.01878e-05
   1.64622 1.2309e-05
   1.68539 -1.56024e-05
   1.72107 2.60617e-05
   1.75152 -3.78681e-05
   1.77865 5.15136e-05
   1.80281 -7.04941e-05
   1.82434 9.67208e-05
   1.84353 -0.000127861
   1.86062 0.000162723
   1.87584 -0.000210159
   1.88941 0.000288642
    1.9015 -0.000421951
   1.91226 0.000625836
   1.92186 -0.000899644
    1.9304 0.00127211
   1.93802 -0.0018199
    1.9448 0.00261413
   1.95084 -0.00375142
   1.95623 0.00540413
   1.96103 -0.00778173
    1.9653  0.0111707
   1.96911 -0.0160358
    1.9725  0.0230242
   1.97552 -0.0330303
   1.97822   0.047396
   1.98061 -0.0679967
   1.98275  0.0974658
   1.98466  -0.139632
   1.98635   0.199846
   1.98786  -0.285642
   1.98921    0.40765
   1.99041  -0.580683
   1.99148   0.825537
   1.99243   -1.10487
   1.99333    1.18983
   1.99421   -1.19558
    1.9951    1.19547
     1.996   -1.19478
   1.99689    1.19383
   1.99777    -1.1929
   1.99867    1.19218
   1.99956   -1.19181
         2   -1.19181
