         0   -71.1619
  0.000445   -71.1619
  0.001335   -223.919
  0.002225   -529.448
  0.003115    -962.59
  0.004005   -1470.11
  0.004895   -1981.28
  0.005785   -2428.36
  0.006675   -2762.92
0.00756867   -2963.26
0.00852095   -2994.88
0.00958982   -2912.85
 0.0107896   -2698.41
 0.0121362   -2380.88
 0.0136477   -2004.69
 0.0153442   -1619.15
 0.0172484   -1261.83
 0.0193858   -956.949
 0.0217849   -711.529
 0.0244777   -522.859
 0.0275001   -380.931
 0.0308926   -277.126
 0.0347005   -201.286
 0.0389746   -145.576
 0.0437719    -104.58
 0.0491566   -74.1895
 0.0552005   -51.3615
 0.0619844   -34.8611
 0.0695988    -23.676
 0.0781455   -15.9489
 0.0877386   -10.3697
 0.0985062   -7.23193
  0.110592   -5.10845
  0.124158   -3.41666
  0.139384   -2.64904
  0.156474   -2.58662
  0.175657  -0.921242
  0.197189   -2.85578
  0.221357   0.359121
  0.248483   -5.03212
  0.278931    1.15163
  0.314615   -1.50177
   0.35378   -2.52552
  0.392945  -0.246371
   0.43211   -1.88855
  0.471275  -0.354131
   0.51044  -0.960904
  0.549604  -0.861548
  0.588769  -0.742093
  0.627934  -0.728555
  0.667099  -0.615754
  0.706264   -0.52596
  0.745429  -0.768978
  0.784593  -0.525945
  0.823758  -0.902467
  0.862923  -0.789207
  0.902088  -0.776533
  0.941253   -0.94834
  0.980418  -0.860262
   1.01958  -0.897414
   1.05875  -0.827776
   1.09791  -0.813508
   1.13708   -0.75872
   1.17624  -0.924441
   1.21541  -0.601034
   1.25457  -0.724874
   1.29374  -0.591116
    1.3329  -0.908749
   1.37207  -0.263738
   1.41123  -0.874745
    1.4504  -0.500734
   1.48956   -1.12535
   1.52873  -0.765764
   1.56789   -1.18154
   1.60706  -0.444548
   1.64622   -2.59019
   1.68539   -1.30136
   1.72107   0.611988
   1.75152    -5.0783
   1.77865   0.846134
   1.80281   -3.73264
   1.82434  -0.630562
   1.84353   -3.21823
   1.86062   -1.58402
   1.87584   -3.77384
   1.88941   -4.80783
    1.9015   -7.27783
   1.91226   -10.6536
   1.92186   -16.1347
    1.9304   -24.1959
   1.93802   -35.4955
    1.9448   -51.4076
   1.95084   -74.2608
   1.95623   -104.799
   1.96103   -146.171
    1.9653    -201.78
   1.96911   -279.055
    1.9725   -384.209
   1.97552   -526.574
   1.97822   -715.987
   1.98061   -962.767
   1.98275   -1269.81
   1.98466   -1630.79
   1.98635   -2022.56
   1.98786    -2405.8
   1.98921   -2730.94
   1.99041   -2953.53
   1.99148   -3041.26
   1.99243   -3014.44
   1.99333   -2814.67
   1.99421   -2478.45
    1.9951   -2025.05
     1.996    -1504.1
   1.99689   -985.431
   1.99777    -541.85
   1.99867    -228.55
   1.99956   -71.7769
         2   -71.7769
