         0  -0.298934
  0.000445  -0.298934
  0.001335  -0.516095
  0.002225  -0.963068
  0.003115   -1.69623
  0.004005   -1.85454
  0.004895   -2.61652
  0.005785   -2.64088
  0.006675   -2.48373
0.00756867   -2.57045
0.00852095   -2.80385
0.00958982   -3.29198
 0.0107896   -3.23226
 0.0121362   -3.25902
 0.0136477   -3.74065
 0.0153442   -3.49092
 0.0172484   -3.46663
 0.0193858   -2.98928
 0.0217849   -2.38982
 0.0244777   -1.99072
 0.0275001  -0.497336
 0.0308926  -0.562487
 0.0347005  -0.065001
 0.0389746  0.0653875
 0.0437719   0.292428
 0.0491566 -0.0316169
 0.0552005 -0.0352702
 0.0619844 -0.0359429
 0.0695988  -0.177136
 0.0781455  -0.271392
 0.0877386  0.0909198
 0.0985062 -0.00805472
  0.110592  -0.260403
  0.124158    0.11916
  0.139384   -0.18117
  0.156474 -0.0106321
  0.175657  0.0887729
  0.197189   0.274131
  0.221357  -0.336965
  0.248483   0.306493
  0.278931  -0.243995
  0.314615   0.192359
   0.35378  -0.340255
  0.392945   0.188415
   0.43211 -0.0986971
  0.471275  0.0764651
   0.51044  -0.177583
  0.549604 0.00876907
  0.588769 -0.00595101
  0.627934    0.10074
  0.667099  -0.105359
  0.706264 -0.0506937
  0.745429   0.215248
  0.784593   0.214241
  0.823758   0.103082
  0.862923  -0.165111
  0.902088 -0.0498868
  0.941253 -0.00730122
  0.980418 -0.0319168
   1.01958 -0.0509066
   1.05875 -0.0426614
   1.09791   0.039077
   1.13708 0.000629131
   1.17624   0.168311
   1.21541 -0.00538685
   1.25457  -0.176909
   1.29374  0.0425029
    1.3329  -0.164891
   1.37207  0.0760201
   1.41123  -0.133474
    1.4504   0.270936
   1.48956 -0.0163584
   1.52873 -0.0891279
   1.56789    0.11222
   1.60706  -0.134138
   1.64622   0.250121
   1.68539  -0.174549
   1.72107  0.0353469
   1.75152  -0.060035
   1.77865  -0.174001
   1.80281  -0.221717
   1.82434 -0.0994994
   1.84353   0.327177
   1.86062  0.0187128
   1.87584  -0.113346
   1.88941  0.0864531
    1.9015  -0.418662
   1.91226   0.159677
   1.92186  0.0822985
    1.9304   0.153672
   1.93802 -0.00235579
    1.9448 -0.0172961
   1.95084  -0.305255
   1.95623  -0.740187
   1.96103 -0.0838736
    1.9653  -0.115617
   1.96911   0.362692
    1.9725   0.357715
   1.97552  0.0470943
   1.97822  -0.877896
   1.98061   -1.07068
   1.98275   -1.40998
   1.98466   -2.18279
   1.98635   -2.82766
   1.98786   -3.35548
   1.98921   -3.73162
   1.99041   -3.61207
   1.99148   -3.64846
   1.99243   -3.45873
   1.99333   -3.12297
   1.99421   -2.65457
    1.9951   -2.08998
     1.996   -1.48734
   1.99689  -0.838296
   1.99777  -0.288198
   1.99867   0.139634
   1.99956    0.38239
         2    0.38239
