         0          0
  0.000445 -7.69599e-07
  0.001335 7.14947e-07
  0.002225 -6.02822e-07
  0.003115 4.28855e-07
  0.004005 -1.92619e-07
  0.004895 -1.08654e-07
  0.005785  4.683e-07
  0.006675 -8.66364e-07
0.00756867 1.27662e-06
0.00852095 -1.4989e-06
0.00958982 1.64316e-06
 0.0107896 -1.67278e-06
 0.0121362 1.55122e-06
 0.0136477 -1.34081e-06
 0.0153442 9.81071e-07
 0.0172484 -5.11974e-07
 0.0193858 7.04667e-09
 0.0217849 5.49713e-07
 0.0244777 -1.14565e-06
 0.0275001 1.74835e-06
 0.0308926 -2.26712e-06
 0.0347005 2.70316e-06
 0.0389746 -3.19078e-06
 0.0437719 3.66675e-06
 0.0491566 -3.90905e-06
 0.0552005 4.03318e-06
 0.0619844 -4.15133e-06
 0.0695988 4.14343e-06
 0.0781455 -4.12441e-06
 0.0877386 4.21329e-06
 0.0985062 -4.28289e-06
  0.110592 4.19633e-06
  0.124158 -3.98479e-06
  0.139384 3.73346e-06
  0.156474 -3.50569e-06
  0.175657 3.32175e-06
  0.197189 -3.1539e-06
  0.221357 2.94541e-06
  0.248483 -2.67672e-06
  0.278931 2.45784e-06
  0.314615 -2.15194e-06
   0.35378 2.30248e-06
  0.392945 -2.42328e-06
   0.43211 2.49984e-06
  0.471275 -2.5787e-06
   0.51044 2.69462e-06
  0.549604 -2.83479e-06
  0.588769 3.00286e-06
  0.627934 -3.18855e-06
  0.667099 3.36545e-06
  0.706264 -3.5273e-06
  0.745429 3.67813e-06
  0.784593 -3.82513e-06
  0.823758 3.9717e-06
  0.862923 -4.11364e-06
  0.902088 4.25305e-06
  0.941253 -4.3842e-06
  0.980418 4.49325e-06
   1.01958 -4.58402e-06
   1.05875 4.6677e-06
   1.09791 -4.74551e-06
   1.13708 4.80813e-06
   1.17624 -4.85022e-06
   1.21541 4.87295e-06
   1.25457 -4.87769e-06
   1.29374 4.87469e-06
    1.3329 -4.86145e-06
   1.37207 4.79896e-06
   1.41123 -4.65913e-06
    1.4504 4.46678e-06
   1.48956 -4.23962e-06
   1.52873 3.97093e-06
   1.56789 -3.65298e-06
   1.60706 3.28612e-06
   1.64622 -2.9046e-06
   1.68539 2.51419e-06
   1.72107 -2.62315e-06
   1.75152 2.60085e-06
   1.77865 -2.65535e-06
   1.80281 2.73107e-06
   1.82434 -2.81804e-06
   1.84353 2.92613e-06
   1.86062 -2.98905e-06
   1.87584 2.93419e-06
   1.88941 -2.75437e-06
    1.9015 2.65952e-06
   1.91226 -2.88826e-06
   1.92186 3.21832e-06
    1.9304 -3.4392e-06
   1.93802 3.48443e-06
    1.9448 -3.25347e-06
   1.95084 2.96564e-06
   1.95623 -2.77329e-06
   1.96103 2.6582e-06
    1.9653 -2.52802e-06
   1.96911 2.23306e-06
    1.9725 -1.94423e-06
   1.97552 1.70441e-06
   1.97822 -1.32917e-06
   1.98061 9.38616e-07
   1.98275 -5.8514e-07
   1.98466 2.04388e-07
   1.98635 1.28777e-07
   1.98786 -3.81635e-07
   1.98921 5.7507e-07
   1.99041 -6.84605e-07
   1.99148 7.11372e-07
   1.99243 -6.78818e-07
   1.99333 5.3471e-07
   1.99421 -3.73167e-07
    1.9951 2.21897e-07
     1.996 -8.87658e-08
   1.99689 -1.92047e-08
   1.99777 1.00067e-07
   1.99867 -1.54172e-07
   1.99956 1.8057e-07
         2          0
