         0          0
  0.000445 5.37026e-06
  0.001335 1.63298e-05
  0.002225 2.86466e-05
  0.003115 4.39298e-05
  0.004005 6.41067e-05
  0.004895 9.17047e-05
  0.005785 0.000128314
  0.006675 0.000175062
0.00756867 0.000231906
0.00852095 0.000300511
0.00958982 0.000381919
 0.0107896 0.00046888
 0.0121362 0.000550455
 0.0136477 0.000617476
 0.0153442 0.000671486
 0.0172484 0.000730267
 0.0193858 0.000809441
 0.0217849 0.000905052
 0.0244777  0.0010121
 0.0275001 0.00115389
 0.0308926 0.00133338
 0.0347005 0.00147354
 0.0389746 0.00154075
 0.0437719 0.00149613
 0.0491566 0.00139573
 0.0552005 0.00137401
 0.0619844 0.00150166
 0.0695988 0.00160953
 0.0781455 0.00166875
 0.0877386 0.00163828
 0.0985062 0.00162802
  0.110592 0.00126789
  0.124158 0.000697008
  0.139384 0.000525469
  0.156474 0.000514248
  0.175657 0.000875175
  0.197189 0.00139515
  0.221357 0.00115646
  0.248483 0.00175184
  0.278931 0.00188667
  0.314615 0.000524503
   0.35378 0.00135723
  0.392945 0.00142196
   0.43211 0.00219936
  0.471275 0.00335782
   0.51044 0.00338461
  0.549604 0.00317572
  0.588769 0.00332544
  0.627934  0.0029777
  0.667099 0.00152615
  0.706264 0.00170905
  0.745429 0.00142243
  0.784593 0.00102986
  0.823758 0.000203405
  0.862923 -3.51228e-05
  0.902088 0.000834493
  0.941253 0.00141276
  0.980418 0.00165498
   1.01958 0.00234043
   1.05875  0.0029493
   1.09791   0.003173
   1.13708 0.00273898
   1.17624 0.00231176
   1.21541 0.00235068
   1.25457 0.00443322
   1.29374 0.00522296
    1.3329 0.00504731
   1.37207 0.00473786
   1.41123 0.00296738
    1.4504 0.00368754
   1.48956 0.00329602
   1.52873 0.00333738
   1.56789 0.00156778
   1.60706 -0.00154554
   1.64622 -0.00146534
   1.68539 0.00074787
   1.72107 0.000179376
   1.75152 0.000999793
   1.77865 0.00104726
   1.80281 -0.000108176
   1.82434 -0.00101238
   1.84353 -0.00220077
   1.86062 -0.00188304
   1.87584 -0.00155646
   1.88941 -0.0011337
    1.9015 -0.000129929
   1.91226 0.000456208
   1.92186 0.000588401
    1.9304 0.000855674
   1.93802 0.000914392
    1.9448 0.000935585
   1.95084 0.000935027
   1.95623 0.000866864
   1.96103 0.000841223
    1.9653 0.000756724
   1.96911 0.00065907
    1.9725 0.000602848
   1.97552 0.000594235
   1.97822 0.000590973
   1.98061 0.000568828
   1.98275 0.000521678
   1.98466 0.000461432
   1.98635  0.0004033
   1.98786 0.00035376
   1.98921 0.000309742
   1.99041 0.000266668
   1.99148 0.000223678
   1.99243 0.000182573
   1.99333 0.000144028
   1.99421 0.000108402
    1.9951 7.79567e-05
     1.996 5.38247e-05
   1.99689 3.57074e-05
   1.99777 2.23705e-05
   1.99867 1.22224e-05
   1.99956 3.83397e-06
         2          0
