         0          0
  0.000445 -0.000676656
  0.001335 -0.00147323
  0.002225 -0.00190612
  0.003115 -0.00206308
  0.004005 -0.00209063
  0.004895 -0.00199773
  0.005785 -0.00187615
  0.006675 -0.00173641
0.00756867 -0.00161573
0.00852095 -0.0012973
0.00958982 -0.00124327
 0.0107896 -0.000909531
 0.0121362 -0.000721387
 0.0136477 -0.000381949
 0.0153442 -0.000112265
 0.0172484 0.000222152
 0.0193858 0.000505792
 0.0217849 0.000767249
 0.0244777 0.000948382
 0.0275001 0.00106814
 0.0308926 0.00106251
 0.0347005 0.000961736
 0.0389746 0.000786401
 0.0437719 0.000570664
 0.0491566 0.000348152
 0.0552005 0.000139554
 0.0619844 -3.24919e-05
 0.0695988 -0.000125063
 0.0781455 -0.00015365
 0.0877386 -0.000133784
 0.0985062 -0.000108937
  0.110592 -7.54081e-05
  0.124158 -4.81171e-05
  0.139384 -3.35644e-05
  0.156474 -2.33395e-05
  0.175657 -3.63378e-05
  0.197189 -1.03704e-05
  0.221357 -5.90459e-06
  0.248483 -2.37103e-05
  0.278931 1.79272e-06
  0.314615 2.99072e-05
   0.35378 -1.57402e-06
  0.392945 -2.64282e-05
   0.43211 -1.89779e-05
  0.471275 -1.8647e-05
   0.51044 -1.87663e-05
  0.549604 -2.11024e-05
  0.588769 -1.61719e-05
  0.627934 -9.89155e-06
  0.667099 -9.88947e-06
  0.706264 -5.93055e-06
  0.745429 -4.09801e-06
  0.784593 8.81006e-07
  0.823758 2.91034e-06
  0.862923 4.57731e-06
  0.902088 5.34242e-06
  0.941253 5.28123e-06
  0.980418 3.8345e-06
   1.01958 5.80037e-06
   1.05875  5.652e-06
   1.09791 6.95417e-06
   1.13708 8.02019e-06
   1.17624 5.83736e-06
   1.21541 6.09354e-06
   1.25457 3.23523e-06
   1.29374 5.47857e-06
    1.3329 5.22449e-06
   1.37207 7.33658e-07
   1.41123 -4.11373e-07
    1.4504 3.51892e-07
   1.48956 -1.17257e-05
   1.52873 -2.13274e-05
   1.56789 7.75939e-07
   1.60706 5.07129e-06
   1.64622 2.79514e-05
   1.68539 2.24707e-05
   1.72107 2.2667e-06
   1.75152 1.74581e-06
   1.77865 5.27724e-06
   1.80281 1.47369e-05
   1.82434 2.83959e-05
   1.84353 1.00833e-05
   1.86062 1.62386e-06
   1.87584 -2.86731e-05
   1.88941 -4.42305e-05
    1.9015 -8.91125e-05
   1.91226 -0.000142992
   1.92186 -0.000145057
    1.9304 -9.40539e-05
   1.93802 1.23832e-06
    1.9448 0.000157868
   1.95084 0.000363507
   1.95623 0.000593936
   1.96103 0.000794066
    1.9653 0.000961467
   1.96911 0.00105379
    1.9725 0.00105868
   1.97552 0.000944258
   1.97822 0.000757606
   1.98061 0.000497615
   1.98275 0.000226032
   1.98466 -0.000102162
   1.98635 -0.000391477
   1.98786 -0.000732792
   1.98921 -0.000914946
   1.99041 -0.00126362
   1.99148 -0.00130766
   1.99243 -0.00164169
   1.99333  -0.001759
   1.99421 -0.00191823
    1.9951 -0.00204517
     1.996 -0.00213862
   1.99689  -0.002111
   1.99777 -0.00195128
   1.99867 -0.00150928
   1.99956 -0.000693897
         2          0
