         0          0
  0.000445   -15.3507
  0.001335   -51.7639
  0.002225   -130.588
  0.003115   -276.407
  0.004005   -494.775
  0.004895   -764.643
  0.005785   -1050.53
  0.006675   -1313.08
0.00756867   -1530.64
0.00852095   -1649.13
0.00958982   -1715.74
 0.0107896   -1689.59
 0.0121362   -1585.24
 0.0136477   -1416.82
 0.0153442    -1218.3
 0.0172484   -1013.84
 0.0193858   -826.107
 0.0217849   -664.024
 0.0244777   -531.418
 0.0275001   -424.949
 0.0308926   -341.744
 0.0347005   -276.493
 0.0389746   -225.081
 0.0437719   -184.384
 0.0491566    -151.95
 0.0552005   -125.747
 0.0619844   -104.924
 0.0695988   -88.5738
 0.0781455   -75.4025
 0.0877386   -64.4759
 0.0985062   -55.9832
  0.110592   -48.9431
  0.124158   -42.8505
  0.139384    -38.208
  0.156474   -34.6096
  0.175657   -30.1979
  0.197189   -28.9682
  0.221357   -23.8219
  0.248483   -25.9743
  0.278931   -17.9808
  0.314615   -15.9475
   0.35378   -16.2182
  0.392945   -12.3426
   0.43211   -12.5869
  0.471275   -9.51296
   0.51044   -8.93957
  0.549604   -7.72107
  0.588769   -6.64484
  0.627934   -5.80435
  0.667099   -4.95863
  0.706264   -4.24197
  0.745429   -3.95713
  0.784593   -3.22279
  0.823758   -3.26705
  0.862923   -2.81968
  0.902088   -2.56718
  0.941253   -2.59655
  0.980418   -2.42128
   1.01958   -2.45853
   1.05875    -2.4572
   1.09791   -2.59584
   1.13708   -2.78251
   1.17624   -3.27435
   1.21541   -3.33003
   1.25457   -3.92291
   1.29374   -4.34741
    1.3329   -5.34759
   1.37207   -5.35197
   1.41123   -6.82238
    1.4504   -7.36239
   1.48956   -9.10536
   1.52873   -9.90615
   1.56789   -11.7292
   1.60706   -12.2939
   1.64622   -15.9321
   1.68539   -15.4305
   1.72107   -18.2728
   1.75152   -25.8469
   1.77865   -23.2905
   1.80281   -29.8706
   1.82434   -30.2217
   1.84353   -35.4031
   1.86062   -37.7085
   1.87584    -43.493
   1.88941   -49.1282
    1.9015   -56.4593
   1.91226   -65.2829
   1.92186   -76.3807
    1.9304    -89.973
   1.93802   -106.669
    1.9448   -127.454
   1.95084   -153.992
   1.95623   -186.872
   1.96103   -228.247
    1.9653   -280.199
   1.96911   -347.286
    1.9725   -432.474
   1.97552   -540.485
   1.97822   -675.085
   1.98061   -839.934
   1.98275   -1031.16
   1.98466    -1240.1
   1.98635    -1444.4
   1.98786   -1618.58
   1.98921   -1727.99
   1.99041   -1758.14
   1.99148   -1692.79
   1.99243   -1574.06
   1.99333   -1352.63
   1.99421   -1084.25
    1.9951   -790.414
     1.996   -511.972
   1.99689   -286.083
   1.99777   -134.971
   1.99867   -53.2985
   1.99956   -15.7434
         2          0
