         0          0
  0.000445 3.40711e-05
  0.001335 0.000101977
  0.002225 0.000169473
  0.003115 0.000236207
  0.004005 0.000301597
  0.004895 0.000365518
  0.005785 0.000427367
  0.006675 0.000487124
0.00756867 0.000545152
0.00852095 0.000604789
0.00958982 0.000668708
 0.0107896 0.000735989
 0.0121362 0.000805984
 0.0136477 0.000877532
 0.0153442 0.000947694
 0.0172484 0.00101452
 0.0193858  0.0010746
 0.0217849 0.00112583
 0.0244777 0.00116699
 0.0275001 0.00119606
 0.0308926  0.0012233
 0.0347005 0.00124619
 0.0389746 0.00127076
 0.0437719 0.00129975
 0.0491566 0.00134028
 0.0552005 0.00138469
 0.0619844 0.00143301
 0.0695988 0.00148528
 0.0781455 0.00153175
 0.0877386 0.00156038
 0.0985062 0.00160245
  0.110592 0.00164856
  0.124158 0.00165516
  0.139384  0.0016886
  0.156474 0.00167627
  0.175657 0.00165874
  0.197189 0.00167785
  0.221357 0.00185017
  0.248483 0.00180994
  0.278931 0.00203254
  0.314615 0.00201302
   0.35378 0.00228666
  0.392945 0.00203838
   0.43211 0.00207912
  0.471275 0.00196846
   0.51044 0.00197509
  0.549604 0.00170933
  0.588769 0.00145702
  0.627934 0.00119558
  0.667099 0.00108867
  0.706264 0.000820144
  0.745429 0.000473863
  0.784593 0.000457747
  0.823758 0.000770252
  0.862923 0.00124087
  0.902088 0.00145823
  0.941253 0.00159907
  0.980418 0.00172871
   1.01958 0.00180939
   1.05875 0.00181199
   1.09791 0.00174915
   1.13708 0.00174625
   1.17624 0.00174432
   1.21541 0.00200055
   1.25457 0.00224853
   1.29374 0.00222514
    1.3329 0.00226695
   1.37207 0.00205583
   1.41123 0.00196132
    1.4504 0.00166208
   1.48956 0.00177842
   1.52873 0.00186967
   1.56789 0.00182421
   1.60706 0.00195088
   1.64622  0.0018718
   1.68539 0.00217638
   1.72107 0.00220994
   1.75152 0.00227324
   1.77865  0.0022829
   1.80281 0.00218403
   1.82434 0.00198722
   1.84353 0.00177315
   1.86062 0.00168351
   1.87584 0.00160823
   1.88941  0.0015191
    1.9015 0.00145306
   1.91226 0.00134287
   1.92186 0.00126025
    1.9304   0.001193
   1.93802 0.00114251
    1.9448 0.00109741
   1.95084 0.00105656
   1.95623  0.0010108
   1.96103 0.000952021
    1.9653 0.000898032
   1.96911 0.000848158
    1.9725 0.00080814
   1.97552 0.000775943
   1.97822 0.000747619
   1.98061 0.00071704
   1.98275 0.000684624
   1.98466 0.000650336
   1.98635 0.000613143
   1.98786 0.000573175
   1.98921 0.000531131
   1.99041 0.000487992
   1.99148 0.000445194
   1.99243 0.000403565
   1.99333 0.000361724
   1.99421 0.000317581
    1.9951 0.000271336
     1.996 0.000223434
   1.99689 0.000174355
   1.99777 0.000124612
   1.99867 7.46401e-05
   1.99956 2.47791e-05
         2          0
