         0          0
  0.000445 -2.07118e-07
  0.001335 2.0717e-07
  0.002225 -2.07301e-07
  0.003115 2.07467e-07
  0.004005 -2.0771e-07
  0.004895 2.07981e-07
  0.005785 -2.08281e-07
  0.006675 2.08583e-07
0.00756867 -2.07089e-07
0.00852095 1.84621e-07
0.00958982 -1.6443e-07
 0.0107896 1.46355e-07
 0.0121362 -1.30009e-07
 0.0136477 1.15342e-07
 0.0153442 -1.0208e-07
 0.0172484 9.01024e-08
 0.0193858 -7.93216e-08
 0.0217849 6.94441e-08
 0.0244777 -6.06863e-08
 0.0275001 5.27488e-08
 0.0308926 -4.55175e-08
 0.0347005  3.919e-08
 0.0389746 -3.32121e-08
 0.0437719 2.80295e-08
 0.0491566 -2.38591e-08
 0.0552005 2.00009e-08
 0.0619844 -1.65086e-08
 0.0695988 1.36367e-08
 0.0781455 -1.09151e-08
 0.0877386 8.41746e-09
 0.0985062 -6.64903e-09
  0.110592 4.57367e-09
  0.124158 -1.76393e-09
  0.139384 -7.10314e-10
  0.156474 2.25871e-09
  0.175657 -2.93686e-09
  0.197189 3.17359e-09
  0.221357 -3.1354e-09
  0.248483 2.75832e-09
  0.278931 -2.44858e-09
  0.314615 2.35093e-09
   0.35378 -3.02427e-09
  0.392945 3.84367e-09
   0.43211 -4.61324e-09
  0.471275 5.04989e-09
   0.51044 -5.2352e-09
  0.549604 5.58574e-09
  0.588769 -6.08899e-09
  0.627934 6.59697e-09
  0.667099 -7.03544e-09
  0.706264 7.49494e-09
  0.745429 -7.98318e-09
  0.784593 8.25827e-09
  0.823758 -8.29125e-09
  0.862923 8.25646e-09
  0.902088 -8.26153e-09
  0.941253 8.24173e-09
  0.980418 -8.13363e-09
   1.01958 7.90368e-09
   1.05875 -7.46867e-09
   1.09791 6.87279e-09
   1.13708 -6.22868e-09
   1.17624 5.59057e-09
   1.21541 -4.89688e-09
   1.25457 4.04532e-09
   1.29374 -3.14509e-09
    1.3329 2.3092e-09
   1.37207 -1.53602e-09
   1.41123 7.97101e-10
    1.4504 -7.0836e-12
   1.48956 -9.48159e-10
   1.52873 2.06507e-09
   1.56789 -3.06368e-09
   1.60706 3.90062e-09
   1.64622 -4.76217e-09
   1.68539 5.45585e-09
   1.72107 -7.03976e-09
   1.75152 7.85263e-09
   1.77865 -8.3516e-09
   1.80281 9.0347e-09
   1.82434 -1.00417e-08
   1.84353 1.0607e-08
   1.86062 -1.04968e-08
   1.87584 1.0603e-08
   1.88941 -1.1503e-08
    1.9015 1.33946e-08
   1.91226 -1.61656e-08
   1.92186 1.84133e-08
    1.9304 -2.02841e-08
   1.93802 2.32492e-08
    1.9448 -2.65489e-08
   1.95084 3.00819e-08
   1.95623 -3.45068e-08
   1.96103 3.94929e-08
    1.9653 -4.49275e-08
   1.96911 5.11713e-08
    1.9725 -5.84096e-08
   1.97552  6.642e-08
   1.97822 -7.56784e-08
   1.98061 8.62363e-08
   1.98275 -9.80532e-08
   1.98466 1.11557e-07
   1.98635 -1.26756e-07
   1.98786 1.43806e-07
   1.98921 -1.62975e-07
   1.99041 1.84279e-07
   1.99148 -2.08001e-07
   1.99243 2.34284e-07
   1.99333 -2.36654e-07
   1.99421 2.36801e-07
    1.9951 -2.3676e-07
     1.996 2.36612e-07
   1.99689 -2.36399e-07
   1.99777 2.36221e-07
   1.99867 -2.3606e-07
   1.99956 2.3599e-07
         2          0
