         0          0
  0.000445 5.39616e-09
  0.001335 1.2972e-07
  0.002225 5.52017e-07
  0.003115 1.41462e-06
  0.004005 2.77143e-06
  0.004895 4.56793e-06
  0.005785 6.66297e-06
  0.006675 8.88286e-06
0.00756867 1.10757e-05
0.00852095 1.32255e-05
0.00958982 1.5331e-05
 0.0107896 1.72605e-05
 0.0121362 1.88965e-05
 0.0136477 2.01325e-05
 0.0153442 2.08909e-05
 0.0172484 2.10896e-05
 0.0193858 2.06866e-05
 0.0217849 1.97275e-05
 0.0244777 1.83527e-05
 0.0275001 1.69612e-05
 0.0308926 1.58704e-05
 0.0347005 1.49494e-05
 0.0389746 1.43993e-05
 0.0437719 1.39609e-05
 0.0491566 1.31974e-05
 0.0552005 1.2248e-05
 0.0619844 1.07875e-05
 0.0695988 9.22543e-06
 0.0781455 9.35729e-06
 0.0877386 8.86752e-06
 0.0985062 7.65233e-06
  0.110592 6.76647e-06
  0.124158 4.73379e-06
  0.139384 2.33019e-06
  0.156474 -2.16523e-07
  0.175657 -2.12678e-06
  0.197189 -1.43849e-06
  0.221357 -7.02464e-06
  0.248483 -9.41131e-06
  0.278931 -1.21055e-05
  0.314615 -8.22286e-06
   0.35378 -1.32483e-05
  0.392945 -1.03037e-05
   0.43211 -1.02897e-06
  0.471275 -2.97968e-06
   0.51044 -1.14883e-05
  0.549604 -7.11427e-06
  0.588769 -2.08597e-06
  0.627934 9.97544e-07
  0.667099 -1.83658e-06
  0.706264 -4.20391e-06
  0.745429 1.47972e-06
  0.784593 5.67769e-07
  0.823758 -1.99136e-06
  0.862923 -9.9603e-07
  0.902088 -2.41535e-06
  0.941253 -2.34531e-06
  0.980418 5.27462e-07
   1.01958 1.22371e-06
   1.05875 1.44387e-06
   1.09791 1.10543e-06
   1.13708 4.72269e-06
   1.17624 6.41384e-06
   1.21541 2.84886e-06
   1.25457 5.28731e-06
   1.29374 8.00445e-06
    1.3329 2.26085e-06
   1.37207 -5.22887e-06
   1.41123 -5.33321e-06
    1.4504 -5.15408e-06
   1.48956 -4.61406e-06
   1.52873 -7.5315e-07
   1.56789 -2.5779e-06
   1.60706 2.16172e-06
   1.64622 9.15729e-06
   1.68539 1.35465e-05
   1.72107 1.01882e-05
   1.75152 4.39035e-06
   1.77865 9.50241e-06
   1.80281 1.82574e-05
   1.82434 2.14206e-05
   1.84353  1.887e-05
   1.86062 1.90124e-05
   1.87584 2.04472e-05
   1.88941 2.36268e-05
    1.9015 2.42295e-05
   1.91226 2.50902e-05
   1.92186 2.62863e-05
    1.9304 2.6845e-05
   1.93802 2.87625e-05
    1.9448 2.95821e-05
   1.95084 2.94532e-05
   1.95623 2.94536e-05
   1.96103 2.96835e-05
    1.9653 2.94089e-05
   1.96911 2.92337e-05
    1.9725 2.8914e-05
   1.97552 2.83645e-05
   1.97822 2.77826e-05
   1.98061 2.7393e-05
   1.98275 2.71227e-05
   1.98466 2.6761e-05
   1.98635 2.6032e-05
   1.98786 2.47558e-05
   1.98921 2.28941e-05
   1.99041 2.05393e-05
   1.99148 1.78619e-05
   1.99243 1.50746e-05
   1.99333 1.22182e-05
   1.99421 9.32047e-06
    1.9951 6.57947e-06
     1.996 4.20583e-06
   1.99689 2.35496e-06
   1.99777 1.08385e-06
   1.99867 3.46816e-07
   1.99956 3.40453e-08
         2          0
