         0          0
  0.000445 -2.36759e-10
  0.001335 -5.63406e-09
  0.002225 -2.55348e-08
  0.003115 -6.66409e-08
  0.004005 -1.31306e-07
  0.004895 -2.22311e-07
  0.005785 -3.32481e-07
  0.006675 -4.64336e-07
0.00756867 -6.02874e-07
0.00852095 -7.53443e-07
0.00958982 -9.40994e-07
 0.0107896 -1.13885e-06
 0.0121362 -1.36797e-06
 0.0136477 -1.60198e-06
 0.0153442 -1.85458e-06
 0.0172484 -2.0989e-06
 0.0193858 -2.3307e-06
 0.0217849 -2.50109e-06
 0.0244777 -2.58136e-06
 0.0275001 -2.63403e-06
 0.0308926 -2.71054e-06
 0.0347005 -2.78221e-06
 0.0389746 -2.89618e-06
 0.0437719 -2.9393e-06
 0.0491566 -2.89808e-06
 0.0552005 -2.82546e-06
 0.0619844 -3.00488e-06
 0.0695988 -2.99391e-06
 0.0781455 -3.01052e-06
 0.0877386 -3.03302e-06
 0.0985062 -2.83901e-06
  0.110592 -2.22756e-06
  0.124158 -2.23237e-06
  0.139384 -1.67466e-06
  0.156474 -1.41879e-06
  0.175657 -1.01991e-06
  0.197189 -3.13419e-07
  0.221357 9.06172e-08
  0.248483 1.77458e-08
  0.278931 5.80146e-07
  0.314615 -4.77849e-07
   0.35378 6.65778e-07
  0.392945 -1.8875e-06
   0.43211 -1.22161e-06
  0.471275 8.78004e-08
   0.51044 -1.39159e-06
  0.549604 -9.26901e-07
  0.588769 -2.49693e-07
  0.627934 -5.02296e-07
  0.667099 -6.97366e-07
  0.706264 -8.04433e-07
  0.745429 -6.77182e-07
  0.784593 -7.64685e-07
  0.823758 6.09084e-07
  0.862923 -1.83672e-07
  0.902088 3.77111e-07
  0.941253 2.36123e-07
  0.980418 5.71644e-07
   1.01958 2.54466e-07
   1.05875 3.91404e-07
   1.09791 8.23263e-08
   1.13708 6.83152e-07
   1.17624 5.74241e-07
   1.21541 2.04845e-06
   1.25457 1.32507e-06
   1.29374 2.05383e-06
    1.3329 8.39915e-07
   1.37207 1.70278e-06
   1.41123 -2.4973e-07
    1.4504 -1.15661e-06
   1.48956 1.97515e-06
   1.52873 7.20822e-07
   1.56789 1.63041e-06
   1.60706 3.44737e-06
   1.64622 4.08306e-06
   1.68539 5.39586e-06
   1.72107 4.93735e-06
   1.75152 3.47342e-06
   1.77865 3.32132e-06
   1.80281 3.13954e-06
   1.82434 2.18121e-06
   1.84353 2.99758e-06
   1.86062 3.38317e-06
   1.87584 3.41526e-06
   1.88941 3.6779e-06
    1.9015 3.86404e-06
   1.91226 3.89466e-06
   1.92186 3.91475e-06
    1.9304 3.94805e-06
   1.93802 3.89277e-06
    1.9448 3.93522e-06
   1.95084 3.72855e-06
   1.95623 3.72087e-06
   1.96103 3.61231e-06
    1.9653 3.38118e-06
   1.96911 3.22453e-06
    1.9725 3.07978e-06
   1.97552 2.9057e-06
   1.97822 2.72188e-06
   1.98061 2.50892e-06
   1.98275 2.27794e-06
   1.98466 2.03993e-06
   1.98635 1.79494e-06
   1.98786 1.54374e-06
   1.98921 1.28605e-06
   1.99041 1.04861e-06
   1.99148 8.2571e-07
   1.99243 6.45682e-07
   1.99333 4.86201e-07
   1.99421 3.40765e-07
    1.9951 2.22384e-07
     1.996 1.29294e-07
   1.99689 6.42663e-08
   1.99777 2.46945e-08
   1.99867 5.27126e-09
   1.99956 3.03457e-10
         2          0
