         0   0.012068
  0.000445  0.0121911
  0.001335  0.0130766
  0.002225  0.0155056
  0.003115  0.0199214
  0.004005  0.0268398
  0.004895  0.0360717
  0.005785    0.04683
  0.006675  0.0580664
0.00756867  0.0678249
0.00852095  0.0741027
0.00958982  0.0743231
 0.0107896  0.0665308
 0.0121362  0.0524597
 0.0136477  0.0380882
 0.0153442  0.0313518
 0.0172484  0.0339555
 0.0193858  0.0384481
 0.0217849   0.039803
 0.0244777  0.0433323
 0.0275001  0.0499097
 0.0308926  0.0448576
 0.0347005  0.0262672
 0.0389746 0.00321293
 0.0437719 -0.0139738
 0.0491566   -0.01112
 0.0552005 0.00761177
 0.0619844  0.0164915
 0.0695988  0.0105481
 0.0781455 0.00187639
 0.0877386 -0.00206476
 0.0985062 -0.0153752
  0.110592 -0.0359405
  0.124158 -0.0266746
  0.139384 -0.00596123
  0.156474 0.00907921
  0.175657  0.0214822
  0.197189 0.00713658
  0.221357 0.00603591
  0.248483  0.0131882
  0.278931 -0.0168722
  0.314615 -0.00845521
   0.35378  0.0114574
  0.392945  0.0107511
   0.43211  0.0247143
  0.471275  0.0151316
   0.51044 -0.00232474
  0.549604 -0.00075542
  0.588769  -0.002528
  0.627934 -0.0229707
  0.667099 -0.0161963
  0.706264 -0.00132423
  0.745429 -0.00867095
  0.784593 -0.0155627
  0.823758 -0.0135962
  0.862923 0.00805683
  0.902088  0.0184845
  0.941253  0.0104748
  0.980418  0.0118431
   1.01958   0.016524
   1.05875  0.0106291
   1.09791 -0.00268512
   1.13708 -0.0109951
   1.17624 -0.00495717
   1.21541  0.0270836
   1.25457  0.0366689
   1.29374 0.00783979
    1.3329 -0.00619299
   1.37207 -0.0265534
   1.41123  -0.013409
    1.4504 0.00419562
   1.48956 -0.00447035
   1.52873 -0.0220636
   1.56789 -0.0623378
   1.60706 -0.0387224
   1.64622  0.0292788
   1.68539  0.0202894
   1.72107 0.00550706
   1.75152  0.0143476
   1.77865 -0.0230298
   1.80281  -0.044902
   1.82434 -0.0519729
   1.84353 -0.0216799
   1.86062  0.0200201
   1.87584  0.0263066
   1.88941  0.0571093
    1.9015   0.068745
   1.91226  0.0341081
   1.92186  0.0225263
    1.9304   0.019492
   1.93802 0.00541784
    1.9448 0.00151584
   1.95084 -0.00637563
   1.95623 -0.00900185
   1.96103 -0.0125578
    1.9653 -0.0227082
   1.96911 -0.0211093
    1.9725 -0.0097113
   1.97552 -0.00203045
   1.97822 -0.00522102
   1.98061 -0.0156456
   1.98275 -0.0268493
   1.98466 -0.0329521
   1.98635 -0.0335211
   1.98786 -0.0327324
   1.98921 -0.0342961
   1.99041 -0.0380623
   1.99148 -0.0416936
   1.99243 -0.0431489
   1.99333   -0.04158
   1.99421 -0.0371185
    1.9951 -0.0306616
     1.996 -0.0237356
   1.99689 -0.0176709
   1.99777 -0.0131938
   1.99867 -0.0104138
   1.99956 -0.00902044
         2 -0.00861567
