         0 1.06862e-17
  0.000445 2.52823e-17
  0.001335 1.51931e-17
  0.002225 5.60385e-18
  0.003115 -1.82535e-16
  0.004005 -5.46019e-17
  0.004895 -2.63143e-16
  0.005785 -1.76144e-16
  0.006675 1.88152e-16
0.00756867 -2.98397e-16
0.00852095 -1.01945e-15
0.00958982 -5.22498e-16
 0.0107896 -3.5858e-16
 0.0121362 -2.98601e-16
 0.0136477 -6.34561e-16
 0.0153442 -2.71525e-16
 0.0172484 5.11331e-16
 0.0193858 4.55497e-16
 0.0217849 6.75064e-16
 0.0244777 -2.25286e-16
 0.0275001 2.70752e-16
 0.0308926 2.59561e-16
 0.0347005 5.45457e-16
 0.0389746 6.00129e-16
 0.0437719 -8.02469e-18
 0.0491566 -1.52973e-16
 0.0552005 3.85388e-16
 0.0619844 -4.58475e-16
 0.0695988 -2.57094e-16
 0.0781455 -2.08504e-16
 0.0877386 2.70712e-16
 0.0985062 7.83906e-17
  0.110592 1.42464e-17
  0.124158 -1.477e-16
  0.139384  -8.34e-17
  0.156474 -1.26898e-16
  0.175657 -3.07372e-16
  0.197189 -2.22602e-16
  0.221357 -9.40448e-17
  0.248483 2.7045e-18
  0.278931 -3.22853e-18
  0.314615 7.0135e-17
   0.35378  6.672e-17
  0.392945 1.69313e-16
   0.43211  6.811e-17
  0.471275 -5.04596e-17
   0.51044 -5.42044e-17
  0.549604 1.3479e-16
  0.588769 1.49782e-16
  0.627934 1.64417e-16
  0.667099 -1.4819e-16
  0.706264 -8.29381e-17
  0.745429 -1.91571e-16
  0.784593 -2.5584e-17
  0.823758 1.45428e-17
  0.862923 -1.01179e-16
  0.902088 -1.51574e-16
  0.941253 3.72813e-18
  0.980418 -1.74927e-16
   1.01958 -9.49507e-17
   1.05875 6.69242e-18
   1.09791 2.30282e-17
   1.13708 1.93623e-17
   1.17624 6.81011e-17
   1.21541 -1.44773e-17
   1.25457 -1.54654e-17
   1.29374 8.09353e-18
    1.3329 -6.23257e-17
   1.37207 -7.76157e-17
   1.41123 1.19069e-16
    1.4504 7.63922e-17
   1.48956 -2.04974e-16
   1.52873 -9.21685e-17
   1.56789 1.03839e-16
   1.60706 -2.367e-18
   1.64622 1.7808e-18
   1.68539 -1.28806e-16
   1.72107 2.28635e-16
   1.75152 -5.61196e-17
   1.77865 1.67857e-16
   1.80281 4.42402e-16
   1.82434 9.3856e-17
   1.84353 1.05971e-18
   1.86062 1.44487e-16
   1.87584 -1.60592e-16
   1.88941 -5.21192e-16
    1.9015 1.47438e-16
   1.91226 -1.21601e-16
   1.92186 -2.58064e-16
    1.9304 1.12216e-15
   1.93802 -1.87859e-16
    1.9448 4.55209e-16
   1.95084 -1.69927e-15
   1.95623 1.05004e-15
   1.96103 9.73532e-16
    1.9653 -1.56758e-15
   1.96911 -4.42562e-16
    1.9725 -1.28306e-16
   1.97552 3.50292e-15
   1.97822 -2.77856e-15
   1.98061 -1.15273e-15
   1.98275 2.62316e-15
   1.98466 -7.07466e-15
   1.98635 -1.85192e-15
   1.98786 5.93685e-16
   1.98921 1.15284e-15
   1.99041 -5.34037e-15
   1.99148 9.74804e-15
   1.99243 -1.05454e-14
   1.99333 6.17081e-15
   1.99421 -5.29381e-15
    1.9951 7.78441e-15
     1.996 -9.69833e-16
   1.99689 -4.09545e-15
   1.99777 4.35187e-15
   1.99867 3.98152e-16
   1.99956 -7.05423e-16
         2 -6.56272e-16
