         0 -5.77394e-20
  0.000445 8.99003e-19
  0.001335 3.84248e-18
  0.002225 -5.19751e-18
  0.003115 -1.24789e-18
  0.004005 -1.64779e-17
  0.004895 -2.30727e-17
  0.005785 3.30669e-17
  0.006675 -9.6898e-17
0.00756867 -1.49902e-17
0.00852095 -2.33435e-17
0.00958982 -7.40585e-17
 0.0107896 -6.83009e-17
 0.0121362 -2.59281e-17
 0.0136477 1.4968e-17
 0.0153442 -6.65912e-18
 0.0172484 3.01759e-18
 0.0193858 -4.79172e-18
 0.0217849 -2.41274e-17
 0.0244777 -2.77933e-17
 0.0275001 -6.25144e-17
 0.0308926 -1.66145e-17
 0.0347005 -2.84572e-17
 0.0389746 -5.06883e-17
 0.0437719 1.43691e-17
 0.0491566 4.87199e-17
 0.0552005 -2.85413e-17
 0.0619844 8.27449e-18
 0.0695988 7.4554e-17
 0.0781455 -2.16929e-17
 0.0877386 2.50555e-17
 0.0985062 -4.16084e-18
  0.110592 -6.64455e-18
  0.124158 6.8287e-18
  0.139384 5.1778e-17
  0.156474 7.46102e-17
  0.175657 5.91971e-18
  0.197189 -8.73579e-18
  0.221357 3.59637e-17
  0.248483 1.60824e-17
  0.278931 -4.70915e-18
  0.314615 -4.74568e-17
   0.35378 -6.20032e-17
  0.392945 6.75215e-17
   0.43211 -9.57567e-20
  0.471275 -4.51927e-17
   0.51044 -4.02234e-18
  0.549604 2.60023e-17
  0.588769 -2.56373e-17
  0.627934 -4.23966e-18
  0.667099 6.35092e-17
  0.706264 4.32981e-17
  0.745429 1.03764e-18
  0.784593 -3.09748e-17
  0.823758 -1.95985e-17
  0.862923 -1.66762e-17
  0.902088 8.79657e-18
  0.941253 3.79438e-17
  0.980418 5.45708e-17
   1.01958 -1.28017e-16
   1.05875 5.73208e-17
   1.09791 -6.88688e-17
   1.13708 -3.74561e-18
   1.17624 6.13015e-17
   1.21541 3.21806e-17
   1.25457 1.63344e-17
   1.29374 -4.59355e-19
    1.3329 -2.84939e-18
   1.37207 9.65311e-18
   1.41123 1.44382e-17
    1.4504 4.24599e-17
   1.48956 5.99282e-17
   1.52873 4.07108e-17
   1.56789 -8.4539e-17
   1.60706 8.19017e-17
   1.64622 3.7112e-17
   1.68539 -2.46581e-17
   1.72107 -6.33019e-17
   1.75152 1.84902e-17
   1.77865 6.8795e-18
   1.80281 -2.27729e-17
   1.82434 -9.38105e-17
   1.84353 -6.80239e-17
   1.86062 -8.28226e-18
   1.87584 3.31957e-17
   1.88941 3.36642e-17
    1.9015 -1.00285e-16
   1.91226 -3.91065e-17
   1.92186 -4.92151e-17
    1.9304 -5.8491e-17
   1.93802 3.09408e-17
    1.9448 -7.59226e-17
   1.95084 5.8471e-17
   1.95623 -1.12721e-17
   1.96103 1.08913e-17
    1.9653 -5.43121e-18
   1.96911 1.06974e-16
    1.9725 -6.7244e-17
   1.97552 1.60973e-16
   1.97822 -2.58189e-16
   1.98061 -9.8066e-17
   1.98275 5.52269e-17
   1.98466 -8.84892e-17
   1.98635 2.10807e-16
   1.98786 -1.16003e-16
   1.98921 7.21845e-17
   1.99041 4.27109e-16
   1.99148 -4.48988e-16
   1.99243 -1.24381e-16
   1.99333 4.93849e-17
   1.99421 3.92721e-16
    1.9951 -2.07545e-17
     1.996 -8.01736e-17
   1.99689 1.06384e-16
   1.99777 8.97837e-17
   1.99867 5.52847e-17
   1.99956 3.38918e-17
         2 3.32308e-17
