         0 -0.0429794
  0.000445 -0.0758679
  0.001335  -0.151453
  0.002225  -0.219214
  0.003115  -0.256921
  0.004005  -0.253888
  0.004895  -0.214678
  0.005785  -0.154295
  0.006675 -0.0890236
0.00756867 -0.0301447
0.00852095  0.0176297
0.00958982   0.053044
 0.0107896  0.0731679
 0.0121362  0.0780205
 0.0136477  0.0705545
 0.0153442  0.0549134
 0.0172484  0.0328331
 0.0193858 0.00791772
 0.0217849 -0.0130286
 0.0244777 -0.0280388
 0.0275001 -0.0371626
 0.0308926 -0.0414273
 0.0347005  -0.049407
 0.0389746 -0.0551004
 0.0437719 -0.0528872
 0.0491566 -0.0523002
 0.0552005 -0.0513812
 0.0619844 -0.0492419
 0.0695988 -0.0406008
 0.0781455 -0.0254702
 0.0877386 -0.0185549
 0.0985062 -0.0173949
  0.110592 -0.0151885
  0.124158 -0.0112744
  0.139384 -0.0117274
  0.156474 -0.00954722
  0.175657 -0.00891584
  0.197189 -0.00810424
  0.221357 -0.00421675
  0.248483 -0.00164656
  0.278931 -0.00229545
  0.314615 -0.00127308
   0.35378 -0.00292641
  0.392945 3.65384e-05
   0.43211 0.00231653
  0.471275 0.000541539
   0.51044 -4.92325e-06
  0.549604 0.00016321
  0.588769 -0.000908716
  0.627934 0.000889026
  0.667099 0.00221744
  0.706264 0.00199092
  0.745429 0.00155403
  0.784593 -2.1565e-05
  0.823758 -0.000343823
  0.862923 -0.000741887
  0.902088 -0.00155184
  0.941253 -0.00128962
  0.980418 -0.00113307
   1.01958 -0.000894301
   1.05875 -0.00016821
   1.09791 9.10626e-05
   1.13708 -1.02091e-05
   1.17624 0.000305765
   1.21541 -0.000344132
   1.25457 -0.000114668
   1.29374 0.00152442
    1.3329 0.00157769
   1.37207 0.000897709
   1.41123 -3.96132e-05
    1.4504 0.000117731
   1.48956 -0.00247982
   1.52873 -0.00108558
   1.56789 0.00178134
   1.60706 0.00264612
   1.64622 0.00059543
   1.68539 -0.000338232
   1.72107 -0.00193367
   1.75152 -0.0026071
   1.77865  -0.001967
   1.80281 -0.0051894
   1.82434 -0.00718021
   1.84353 -0.0084622
   1.86062 -0.0102302
   1.87584 -0.0125235
   1.88941 -0.0128495
    1.9015 -0.0175988
   1.91226 -0.0175609
   1.92186 -0.0130088
    1.9304 -0.0176808
   1.93802 -0.0189462
    1.9448 -0.0201179
   1.95084 -0.0228436
   1.95623 -0.0140501
   1.96103 -0.00437093
    1.9653 -0.00679446
   1.96911 -0.00177532
    1.9725  0.0115263
   1.97552  0.0127178
   1.97822 0.00339101
   1.98061 -0.0011707
   1.98275 0.00386797
   1.98466  0.0142409
   1.98635   0.023907
   1.98786  0.0266615
   1.98921  0.0174077
   1.99041 -0.00791768
   1.99148 -0.0510042
   1.99243  -0.108587
   1.99333  -0.176634
   1.99421  -0.247431
    1.9951  -0.307443
     1.996  -0.341052
   1.99689  -0.338364
   1.99777  -0.302198
   1.99867   -0.24834
   1.99956  -0.199218
         2  -0.183376
