         0 -0.00195042
  0.000445 -0.00164274
  0.001335 -0.00295644
  0.002225 -0.000195056
  0.003115 0.00729918
  0.004005   0.019268
  0.004895  0.0348705
  0.005785  0.0529804
  0.006675    0.07235
0.00756867  0.0914246
0.00852095   0.110028
0.00958982   0.127556
 0.0107896   0.141312
 0.0121362   0.148786
 0.0136477   0.147552
 0.0153442   0.136642
 0.0172484   0.117217
 0.0193858  0.0929422
 0.0217849  0.0688207
 0.0244777  0.0480901
 0.0275001  0.0324204
 0.0308926  0.0196128
 0.0347005 0.00896135
 0.0389746 0.00341681
 0.0437719 0.00131351
 0.0491566 -0.00302118
 0.0552005 -0.00712338
 0.0619844 -0.00690959
 0.0695988 -0.0065201
 0.0781455 -0.00476083
 0.0877386 -0.00211349
 0.0985062 -0.00240354
  0.110592 -0.00502717
  0.124158 -0.00443983
  0.139384 -0.00556013
  0.156474 -0.00332473
  0.175657 -0.00140789
  0.197189 -0.00341204
  0.221357 -0.00539033
  0.248483 -0.00329387
  0.278931 -0.00223949
  0.314615 -0.00277432
   0.35378 -0.00536579
  0.392945 0.000484962
   0.43211 0.00624959
  0.471275 0.00208522
   0.51044 -0.00134262
  0.549604 -0.000972128
  0.588769 -0.00250977
  0.627934 -0.00236251
  0.667099 -0.000227176
  0.706264 0.000704122
  0.745429 0.000328215
  0.784593 0.00230952
  0.823758 0.00356735
  0.862923   0.002782
  0.902088  0.0015392
  0.941253 0.00125004
  0.980418 0.00128143
   1.01958 0.000643304
   1.05875 -0.000283405
   1.09791 -0.000866477
   1.13708 -0.00118782
   1.17624 -0.00121899
   1.21541 0.000115089
   1.25457 0.00181233
   1.29374 0.00208797
    1.3329 0.00232935
   1.37207 0.00141814
   1.41123 0.000516783
    1.4504 0.00081183
   1.48956 -1.52232e-05
   1.52873 -0.00135312
   1.56789 -0.00380932
   1.60706 -0.00527122
   1.64622 -0.0037888
   1.68539 -0.00294985
   1.72107 -0.0016074
   1.75152 -0.00027488
   1.77865 -0.00343345
   1.80281 -0.00394831
   1.82434 -0.000878758
   1.84353 0.00182513
   1.86062 0.00111939
   1.87584 -0.000398001
   1.88941 0.00137783
    1.9015 -0.00415463
   1.91226 -0.0102031
   1.92186 -0.0115284
    1.9304 -0.0136977
   1.93802 -0.0154698
    1.9448 -0.0151976
   1.95084 -0.0151763
   1.95623 -0.0185222
   1.96103  -0.019853
    1.9653 -0.0228984
   1.96911 -0.0314477
    1.9725 -0.0426813
   1.97552 -0.0528334
   1.97822 -0.0609575
   1.98061 -0.0675027
   1.98275 -0.0724506
   1.98466 -0.0763909
   1.98635 -0.0789925
   1.98786 -0.0792086
   1.98921 -0.0761006
   1.99041 -0.0694727
   1.99148 -0.0600441
   1.99243 -0.0493984
   1.99333  -0.038068
   1.99421 -0.0264338
    1.9951 -0.0157592
     1.996 -0.0069485
   1.99689 -0.000633848
   1.99777 0.00283685
   1.99867 0.00344048
   1.99956 0.00157926
         2   0.001783
