         0  0.0721971
  0.000445  0.0720665
  0.001335  0.0717124
  0.002225  0.0710635
  0.003115  0.0698724
  0.004005  0.0682453
  0.004895  0.0661532
  0.005785  0.0636527
  0.006675  0.0611662
0.00756867   0.058683
0.00852095  0.0559104
0.00958982  0.0525123
 0.0107896  0.0486576
 0.0121362  0.0446292
 0.0136477  0.0400204
 0.0153442   0.034959
 0.0172484  0.0296582
 0.0193858  0.0241786
 0.0217849   0.018955
 0.0244777  0.0138905
 0.0275001  0.0107708
 0.0308926 0.00914405
 0.0347005 0.00740524
 0.0389746 0.00600147
 0.0437719 0.00503116
 0.0491566 0.00392631
 0.0552005  0.0027171
 0.0619844 0.00269224
 0.0695988 0.00268057
 0.0781455 0.00161236
 0.0877386 0.000774169
 0.0985062 0.00101374
  0.110592 9.53556e-05
  0.124158 -0.00108308
  0.139384 -0.000953603
  0.156474 -0.000103822
  0.175657 -0.000183176
  0.197189 0.000458763
  0.221357 0.000369387
  0.248483 -0.000428925
  0.278931 -0.00251241
  0.314615 -0.00374493
   0.35378 -0.00369179
  0.392945 6.09233e-05
   0.43211 0.00397621
  0.471275 0.00112354
   0.51044 -4.33383e-05
  0.549604 0.00017759
  0.588769 -0.000786445
  0.627934 -0.00144292
  0.667099 -0.0007786
  0.706264 -0.000569737
  0.745429 0.000643513
  0.784593 0.00346143
  0.823758 0.00606309
  0.862923 0.00493911
  0.902088 0.00264437
  0.941253 0.00208167
  0.980418 0.00114633
   1.01958 0.000117454
   1.05875 -0.00111481
   1.09791 -0.00183807
   1.13708 -0.0026101
   1.17624 -0.000986922
   1.21541 0.00262722
   1.25457  0.0040629
   1.29374 0.00431964
    1.3329 0.00369325
   1.37207 0.00366806
   1.41123 0.000973237
    1.4504 -0.000757594
   1.48956 0.00202738
   1.52873 -0.000755993
   1.56789 -0.00355819
   1.60706 -0.00379733
   1.64622 -0.0028127
   1.68539 -0.0029679
   1.72107 -0.0042415
   1.75152 -0.00346932
   1.77865 -0.00257977
   1.80281 -0.00325331
   1.82434 -0.00610712
   1.84353 -0.00439776
   1.86062 -0.00212634
   1.87584 -0.00271748
   1.88941 -0.00263597
    1.9015 -0.00390973
   1.91226 -0.00554886
   1.92186 -0.00581558
    1.9304 -0.00653391
   1.93802 -0.00802885
    1.9448 -0.00966171
   1.95084 -0.0107135
   1.95623 -0.0118472
   1.96103 -0.0115538
    1.9653 -0.0102713
   1.96911 -0.00945663
    1.9725 -0.00847728
   1.97552 -0.0078114
   1.97822 -0.00818802
   1.98061 -0.0092806
   1.98275 -0.0104381
   1.98466 -0.0124255
   1.98635 -0.0155093
   1.98786 -0.0193145
   1.98921 -0.0234903
   1.99041  -0.027526
   1.99148 -0.0311705
   1.99243 -0.0343968
   1.99333 -0.0371977
   1.99421 -0.0396273
    1.9951 -0.0415901
     1.996 -0.0430285
   1.99689 -0.0439176
   1.99777 -0.0442999
   1.99867 -0.0442888
   1.99956 -0.0440223
         2 -0.0438448
