 0.0002225 0.000440681
 0.0006675  0.0010838
 0.0011125 0.00153157
 0.0015575 0.00182758
 0.0020025 0.00200568
 0.0024475 0.00209327
 0.0028925 0.00211298
 0.0033375 0.00208278
 0.0037825 0.00201651
 0.0042275 0.00192475
 0.0046725  0.0018155
 0.0051175 0.00169468
 0.0055625 0.00156663
 0.0060075 0.00143444
 0.0064525 0.00130018
 0.0068975 0.00116495
 0.0073476 0.00102809
0.00781612 0.000887123
0.00831203 0.000740745
0.00883694 0.000589192
0.00939255 0.000432977
0.00998065 0.000272984
 0.0106031 0.000110396
  0.011262 -5.32968e-05
 0.0119594 -0.000216271
 0.0126977 -0.00037637
  0.013479 -0.000531138
 0.0143061 -0.000677912
 0.0151815 -0.00081393
 0.0161082 -0.000936482
  0.017089 -0.00104307
 0.0181271 -0.00113158
  0.019226 -0.00120041
 0.0203891 -0.00124856
 0.0216203 -0.0012757
 0.0229234 -0.00128213
 0.0243028 -0.00126877
 0.0257628 -0.00123708
 0.0273082 -0.00118901
  0.028944 -0.00112694
 0.0306754 -0.00105389
 0.0325081 -0.000972426
 0.0344479 -0.000885808
 0.0365012 -0.000796687
 0.0386746 -0.000707878
  0.040975 -0.000622094
   0.04341 -0.000541834
 0.0459873 -0.000469093
 0.0487154 -0.000405249
  0.051603 -0.000351099
 0.0546595 -0.000306748
 0.0578947 -0.000271572
 0.0613191 -0.000244316
 0.0649437 -0.000223238
 0.0687803 -0.000207011
 0.0728413 -0.000194497
 0.0771397 -0.000184461
 0.0816895 -0.000176126
 0.0865054 -0.000168237
 0.0916029 -0.000159774
 0.0969985 -0.000150852
   0.10271 -0.000142589
  0.108755 -0.000134861
  0.115153 -0.000127007
  0.121926 -0.000118492
  0.129095 -0.000109339
  0.136683 -0.000100427
  0.144715 -9.19951e-05
  0.153216 -8.38311e-05
  0.162214 -7.71143e-05
  0.171739 -7.12634e-05
  0.181821 -6.55024e-05
  0.192492 -6.12977e-05
  0.203788 -5.78134e-05
  0.215744 -5.16429e-05
  0.228399 -4.76466e-05
  0.241794 -4.45793e-05
  0.255972 -4.25375e-05
   0.27098 -3.59855e-05
  0.286865 -3.50525e-05
  0.304824 -5.51267e-05
  0.324407 -3.89123e-05
  0.343989 -2.64071e-05
  0.363571 -2.3769e-05
  0.383154 -2.01937e-05
  0.402736 -1.76245e-05
  0.422319 -1.9434e-05
  0.441901 -1.89195e-05
  0.461484 -1.89584e-05
  0.481066 -2.05805e-05
  0.500648 -2.09344e-05
  0.520231 -1.99057e-05
  0.539813 -1.87963e-05
  0.559396 -1.79965e-05
  0.578978 -1.74431e-05
   0.59856 -1.60742e-05
  0.618143 -1.60524e-05
  0.637725 -1.71416e-05
  0.657308 -1.76154e-05
   0.67689 -1.72605e-05
  0.696473 -1.609e-05
  0.716055 -1.51783e-05
  0.735637 -1.53392e-05
   0.75522 -1.57258e-05
  0.774802 -1.56339e-05
  0.794385 -1.44831e-05
  0.813967 -1.41886e-05
  0.833549 -1.44809e-05
  0.853132 -1.438e-05
  0.872714 -1.47483e-05
  0.892297 -1.5791e-05
  0.911879 -1.61008e-05
  0.931462 -1.5465e-05
  0.951044 -1.50748e-05
  0.970626 -1.53577e-05
  0.990209 -1.58024e-05
   1.00979 -1.61987e-05
   1.02937 -1.59981e-05
   1.04896 -1.61202e-05
   1.06854 -1.64207e-05
   1.08812 -1.6185e-05
    1.1077 -1.58483e-05
   1.12729 -1.58992e-05
   1.14687 -1.61848e-05
   1.16645 -1.56937e-05
   1.18603 -1.43085e-05
   1.20562 -1.29142e-05
    1.2252 -1.28021e-05
   1.24478 -1.35836e-05
   1.26436 -1.3556e-05
   1.28395 -1.21285e-05
   1.30353 -1.18549e-05
   1.32311 -1.27148e-05
   1.34269 -1.19636e-05
   1.36228 -1.24479e-05
   1.38186 -1.34659e-05
   1.40144 -1.13699e-05
   1.42102 -1.04041e-05
   1.44061 -1.14122e-05
   1.46019 -1.1296e-05
   1.47977 -1.12285e-05
   1.49935 -1.29768e-05
   1.51894 -1.51014e-05
   1.53852 -1.67544e-05
    1.5581 -1.8943e-05
   1.57768 -2.09238e-05
   1.59727 -2.46124e-05
   1.61685 -2.62593e-05
   1.63643 -2.83084e-05
   1.65601 -2.95601e-05
    1.6756 -3.91966e-05
   1.69518 -6.22589e-05
   1.71314 -4.41791e-05
   1.72902 -4.05339e-05
   1.74403 -4.21871e-05
   1.75821 -4.38016e-05
    1.7716 -5.00737e-05
   1.78426 -5.43474e-05
   1.79621 -5.83559e-05
   1.80751 -6.3197e-05
   1.81818 -6.8957e-05
   1.82826 -7.32288e-05
   1.83779 -7.8232e-05
   1.84679 -8.41494e-05
   1.85529 -9.23564e-05
   1.86332 -0.000100711
   1.87091 -0.000109365
   1.87808 -0.000118484
   1.88485 -0.000128574
   1.89125 -0.000139926
   1.89729 -0.000151219
     1.903 -0.000161158
    1.9084 -0.000169402
    1.9135 -0.00017575
   1.91831 -0.000181376
   1.92286 -0.00018777
   1.92716 -0.000195817
   1.93122 -0.000207053
   1.93506 -0.000223117
   1.93868 -0.000245581
   1.94211 -0.000275531
   1.94534 -0.000313508
    1.9484 -0.000360394
   1.95129 -0.000416957
   1.95401 -0.00048293
   1.95659 -0.000557095
   1.95903 -0.000637725
   1.96133 -0.000722879
    1.9635 -0.00081041
   1.96555 -0.00089784
   1.96749 -0.000982282
   1.96933 -0.00106071
   1.97106 -0.00113018
   1.97269 -0.00118796
   1.97424 -0.00123146
    1.9757 -0.00125845
   1.97708 -0.00126715
   1.97838 -0.00125627
   1.97961 -0.00122514
   1.98077 -0.00117366
   1.98187 -0.00110237
   1.98291 -0.00101232
   1.98389 -0.00090513
   1.98482 -0.000782814
   1.98569 -0.00064774
   1.98652 -0.000502472
    1.9873 -0.000349635
   1.98804 -0.000191776
   1.98874 -3.12494e-05
    1.9894 0.000129865
   1.99002 0.000289806
   1.99061 0.000447133
   1.99116 0.000600697
   1.99169 0.000749639
   1.99218 0.000893464
   1.99265 0.00103194
    1.9931 0.00116636
   1.99355 0.00129914
   1.99399 0.00143094
   1.99444 0.00156064
   1.99488 0.00168622
   1.99533  0.0018046
   1.99577  0.0019115
   1.99622 0.00200103
   1.99666 0.00206531
   1.99711 0.00209386
   1.99755 0.00207302
     1.998 0.00198507
   1.99844 0.00180772
   1.99889 0.00151403
   1.99933 0.00107075
   1.99978 0.000435063
