         0 -5.06081e-07
  0.000445 -5.06081e-07
  0.001335 -1.19193e-06
  0.002225 -2.44562e-06
  0.003115 -4.03058e-06
  0.004005 -6.04443e-06
  0.004895 -8.4306e-06
  0.005785 -1.1136e-05
  0.006675 -1.40575e-05
0.00756867 -1.70544e-05
0.00852095 -2.00424e-05
0.00958982 -2.30285e-05
 0.0107896 -2.58236e-05
 0.0121362 -2.81606e-05
 0.0136477 -2.98256e-05
 0.0153442 -3.08317e-05
 0.0172484 -3.14833e-05
 0.0193858 -3.22268e-05
 0.0217849 -3.33289e-05
 0.0244777 -3.46119e-05
 0.0275001 -3.56253e-05
 0.0308926 -3.64463e-05
 0.0347005 -3.77579e-05
 0.0389746 -3.91834e-05
 0.0437719 -3.85114e-05
 0.0491566 -3.3263e-05
 0.0552005 -2.33769e-05
 0.0619844 -1.05254e-05
 0.0695988 4.9381e-06
 0.0781455 2.31513e-05
 0.0877386 3.91139e-05
 0.0985062 4.34458e-05
  0.110592 3.38043e-05
  0.124158 1.47516e-05
  0.139384 -4.61818e-07
  0.156474 -9.71275e-06
  0.175657 -1.99559e-05
  0.197189 -2.72047e-05
  0.221357 -2.15359e-05
  0.248483 -4.92161e-06
  0.278931 3.74688e-06
  0.314615 8.39469e-06
   0.35378 7.10122e-06
  0.392945 -1.52948e-05
   0.43211 -2.04711e-05
  0.471275 6.55101e-06
   0.51044 1.37669e-05
  0.549604 7.93473e-06
  0.588769 9.84555e-06
  0.627934 2.91164e-06
  0.667099 3.27831e-06
  0.706264 7.90348e-06
  0.745429 9.00188e-06
  0.784593 1.19729e-05
  0.823758 6.19062e-06
  0.862923 3.86706e-06
  0.902088 6.05677e-06
  0.941253 1.33954e-06
  0.980418 -5.20689e-06
   1.01958 -3.63985e-07
   1.05875 4.8018e-06
   1.09791 3.26788e-06
   1.13708 -1.63682e-06
   1.17624 -6.77798e-06
   1.21541 -6.10557e-06
   1.25457 -1.69286e-05
   1.29374 -2.15066e-05
    1.3329 -1.51696e-05
   1.37207 -1.20413e-05
   1.41123 -5.08751e-06
    1.4504 6.36033e-06
   1.48956 7.05847e-06
   1.52873 -1.69838e-06
   1.56789 -7.57431e-06
   1.60706 -2.03541e-05
   1.64622 -1.10003e-05
   1.68539 -1.06926e-05
   1.72107 -2.83049e-05
   1.75152 -2.09663e-05
   1.77865 -7.93443e-06
   1.80281 -8.22884e-06
   1.82434 -1.00394e-05
   1.84353 -8.20929e-06
   1.86062 2.27338e-06
   1.87584 2.01297e-05
   1.88941 3.12707e-05
    1.9015 3.5569e-05
   1.91226 3.26877e-05
   1.92186 2.98292e-05
    1.9304 3.35847e-05
   1.93802 3.9266e-05
    1.9448 4.14052e-05
   1.95084 3.97912e-05
   1.95623 3.9093e-05
   1.96103 4.44547e-05
    1.9653 5.73464e-05
   1.96911 7.47187e-05
    1.9725 9.18563e-05
   1.97552 0.000105189
   1.97822 0.00011359
   1.98061 0.000117363
   1.98275 0.000116932
   1.98466 0.000112671
   1.98635 0.000105289
   1.98786 9.57803e-05
   1.98921 8.51757e-05
   1.99041 7.43299e-05
   1.99148 6.38884e-05
   1.99243 5.40532e-05
   1.99333 4.45344e-05
   1.99421 3.53557e-05
    1.9951 2.68918e-05
     1.996 1.93496e-05
   1.99689 1.28911e-05
   1.99777 7.71324e-06
   1.99867 3.67691e-06
   1.99956 1.40053e-06
         2 1.40053e-06
