         0 -2.59139e-20
  0.000445 -7.37604e-19
  0.001335 -4.18502e-19
  0.002225 -6.76074e-19
  0.003115 -5.66908e-19
  0.004005 -1.9677e-19
  0.004895 -3.96098e-19
  0.005785 6.56593e-21
  0.006675 -2.33789e-19
0.00756867 -5.22872e-19
0.00852095 -2.20353e-19
0.00958982 -8.20706e-19
 0.0107896 -5.96927e-19
 0.0121362 -5.44087e-19
 0.0136477 -5.47062e-19
 0.0153442 -5.5695e-19
 0.0172484 -5.46325e-19
 0.0193858 -2.5915e-19
 0.0217849 -7.40371e-19
 0.0244777 -2.85093e-19
 0.0275001 -2.55585e-19
 0.0308926 7.25461e-20
 0.0347005 -1.79362e-19
 0.0389746 -5.07129e-19
 0.0437719 -7.02563e-21
 0.0491566 -5.53117e-19
 0.0552005 -2.26867e-19
 0.0619844 -3.70546e-19
 0.0695988 -3.20386e-19
 0.0781455 -4.56293e-19
 0.0877386 -4.32206e-20
 0.0985062 -3.69548e-19
  0.110592 -3.71023e-19
  0.124158 -3.72983e-19
  0.139384 -5.19836e-19
  0.156474 -9.91525e-19
  0.175657 -5.10434e-19
  0.197189 -7.43134e-20
  0.221357 -4.22815e-19
  0.248483 1.7254e-20
  0.278931 -5.90814e-20
  0.314615 2.47854e-20
   0.35378 3.62644e-20
  0.392945 3.17746e-19
   0.43211 -8.49682e-19
  0.471275 -2.012e-19
   0.51044 -2.54046e-19
  0.549604 1.06537e-19
  0.588769 1.41976e-20
  0.627934 -3.0692e-19
  0.667099 -1.78655e-20
  0.706264 1.67112e-19
  0.745429 -5.28518e-19
  0.784593 8.42534e-20
  0.823758 -2.42302e-19
  0.862923 -6.67869e-22
  0.902088 4.06858e-20
  0.941253 -1.36972e-19
  0.980418 2.02702e-20
   1.01958 -4.66532e-21
   1.05875 2.61244e-20
   1.09791 5.89885e-20
   1.13708 4.81443e-20
   1.17624 5.23225e-20
   1.21541 2.03568e-19
   1.25457 3.32015e-19
   1.29374 1.71397e-19
    1.3329 -1.91158e-19
   1.37207 -2.33162e-19
   1.41123 -3.72358e-20
    1.4504 -2.678e-19
   1.48956 1.19829e-19
   1.52873 -1.84551e-19
   1.56789 1.48395e-19
   1.60706 -2.30276e-19
   1.64622 2.1242e-19
   1.68539 -5.10558e-19
   1.72107 -2.09081e-19
   1.75152 -4.73638e-19
   1.77865 5.34165e-20
   1.80281 -1.31284e-19
   1.82434 -4.92037e-19
   1.84353 -9.3146e-20
   1.86062 -9.98333e-21
   1.87584 -7.09406e-19
   1.88941 -4.95888e-19
    1.9015 -6.02634e-19
   1.91226 1.66915e-19
   1.92186 -4.28624e-19
    1.9304 3.34359e-19
   1.93802 -7.51075e-19
    1.9448 -1.82536e-19
   1.95084 -1.19158e-19
   1.95623 -3.68412e-19
   1.96103 -3.74206e-19
    1.9653 -7.59453e-19
   1.96911 2.04099e-19
    1.9725 -1.68077e-19
   1.97552 9.14199e-21
   1.97822 -6.48188e-19
   1.98061 7.20752e-19
   1.98275 2.16884e-19
   1.98466 -7.83861e-19
   1.98635 8.15485e-19
   1.98786 -6.56818e-19
   1.98921 -9.71966e-19
   1.99041 7.92829e-19
   1.99148 3.75637e-19
   1.99243 1.85624e-19
   1.99333 -1.62951e-19
   1.99421 -1.14492e-20
    1.9951 -5.38935e-19
     1.996 -9.55711e-19
   1.99689 2.35463e-19
   1.99777 1.00434e-18
   1.99867 -2.94254e-18
   1.99956 2.42759e-18
         2 2.80494e-18
