         0 -4.88919e-21
  0.000445 4.00884e-21
  0.001335 -1.34441e-21
  0.002225 -5.003e-20
  0.003115 2.33429e-20
  0.004005 -2.92415e-20
  0.004895 -2.34768e-20
  0.005785 4.14415e-20
  0.006675 -2.73387e-20
0.00756867 9.24282e-21
0.00852095 1.09038e-20
0.00958982 -3.49926e-21
 0.0107896 -2.32155e-20
 0.0121362 -3.75405e-21
 0.0136477 -2.69918e-20
 0.0153442 -1.16579e-20
 0.0172484 6.30735e-21
 0.0193858 -2.07538e-20
 0.0217849 -3.21683e-21
 0.0244777 -2.35706e-20
 0.0275001 3.16316e-21
 0.0308926 1.18335e-20
 0.0347005 -9.43408e-20
 0.0389746 1.06539e-20
 0.0437719 -3.67002e-21
 0.0491566 -4.57479e-21
 0.0552005 -1.77506e-20
 0.0619844 -1.00099e-21
 0.0695988 -4.69161e-21
 0.0781455 2.58444e-20
 0.0877386 -2.50853e-20
 0.0985062 -1.79919e-20
  0.110592 -2.72319e-21
  0.124158 -7.24442e-21
  0.139384 -3.3884e-21
  0.156474 -2.5271e-20
  0.175657 1.31628e-20
  0.197189 6.63532e-21
  0.221357 4.6023e-21
  0.248483 1.05591e-20
  0.278931 -1.2209e-20
  0.314615 -5.48864e-21
   0.35378 -6.50603e-21
  0.392945 -4.23801e-21
   0.43211 3.17427e-21
  0.471275 -4.56449e-22
   0.51044 8.02554e-21
  0.549604 -7.5577e-21
  0.588769 1.11125e-20
  0.627934 2.68611e-22
  0.667099 -2.0015e-20
  0.706264 -6.5517e-21
  0.745429 5.35393e-21
  0.784593 9.62094e-22
  0.823758 -1.83854e-20
  0.862923 -2.18533e-20
  0.902088 -1.19825e-20
  0.941253 2.09464e-20
  0.980418 1.05555e-20
   1.01958 3.13244e-20
   1.05875 5.84009e-21
   1.09791 -2.53145e-20
   1.13708 -1.31078e-20
   1.17624 -4.852e-21
   1.21541 2.99431e-20
   1.25457 -7.14245e-21
   1.29374 -2.54338e-20
    1.3329 2.99394e-20
   1.37207 -1.50459e-20
   1.41123 8.16675e-21
    1.4504 7.7263e-21
   1.48956 -2.18941e-20
   1.52873 1.99873e-20
   1.56789 3.41713e-21
   1.60706 -2.29444e-20
   1.64622 1.40369e-20
   1.68539 4.84276e-21
   1.72107 -1.15684e-21
   1.75152 -7.41106e-21
   1.77865 1.54461e-20
   1.80281 -8.15011e-21
   1.82434 1.40987e-21
   1.84353 -1.12584e-20
   1.86062 3.16912e-21
   1.87584 4.5813e-21
   1.88941 -4.32271e-21
    1.9015 4.53251e-21
   1.91226 5.74844e-21
   1.92186 4.6902e-20
    1.9304 1.57608e-20
   1.93802 2.34602e-20
    1.9448 -1.33662e-20
   1.95084 1.70363e-20
   1.95623 -1.76129e-21
   1.96103 3.08301e-20
    1.9653 -3.71562e-20
   1.96911 -2.78497e-20
    1.9725 -5.66034e-20
   1.97552 -1.79621e-20
   1.97822 -5.066e-21
   1.98061 -4.80598e-20
   1.98275 7.53523e-20
   1.98466 -1.20806e-19
   1.98635 -6.05256e-22
   1.98786 -2.0316e-20
   1.98921 4.48801e-20
   1.99041 -8.47984e-20
   1.99148 1.07048e-19
   1.99243 -4.93687e-20
   1.99333 -8.67251e-20
   1.99421 1.87552e-20
    1.9951 3.85014e-20
     1.996 -7.62013e-20
   1.99689 6.69241e-20
   1.99777 1.27271e-20
   1.99867 -1.28784e-19
   1.99956 1.59269e-19
         2 2.04967e-19
