         0          0
  0.000445 0.000102849
  0.001335 5.92609e-05
  0.002225 6.34653e-05
  0.003115 6.2789e-05
  0.004005 6.26649e-05
  0.004895 6.2445e-05
  0.005785 6.2194e-05
  0.006675 6.19086e-05
0.00756867 6.14728e-05
0.00852095 6.45121e-05
0.00958982 6.70933e-05
 0.0107896 6.96224e-05
 0.0121362 7.19646e-05
 0.0136477 7.40302e-05
 0.0153442 7.5701e-05
 0.0172484 7.68471e-05
 0.0193858 7.73439e-05
 0.0217849 7.71007e-05
 0.0244777 7.6087e-05
 0.0275001 7.43589e-05
 0.0308926 7.20493e-05
 0.0347005 6.9317e-05
 0.0389746 6.63952e-05
 0.0437719 6.35625e-05
 0.0491566 6.09565e-05
 0.0552005 5.86417e-05
 0.0619844 5.66722e-05
 0.0695988 5.50792e-05
 0.0781455 5.38696e-05
 0.0877386 5.31078e-05
 0.0985062 5.26376e-05
  0.110592 5.22537e-05
  0.124158 5.21349e-05
  0.139384 5.22476e-05
  0.156474 5.21772e-05
  0.175657 5.18928e-05
  0.197189 5.2101e-05
  0.221357 5.25237e-05
  0.248483 5.24184e-05
  0.278931 5.15931e-05
  0.314615 5.34933e-05
   0.35378 4.97175e-05
  0.392945 4.69814e-05
   0.43211 4.41301e-05
  0.471275 4.18249e-05
   0.51044 4.01837e-05
  0.549604 3.82649e-05
  0.588769 3.60695e-05
  0.627934 3.42143e-05
  0.667099 3.29536e-05
  0.706264 3.14211e-05
  0.745429 2.99474e-05
  0.784593 2.87226e-05
  0.823758 2.73456e-05
  0.862923 2.62295e-05
  0.902088 2.54071e-05
  0.941253 2.46354e-05
  0.980418 2.39266e-05
   1.01958 2.36459e-05
   1.05875 2.37891e-05
   1.09791 2.44092e-05
   1.13708 2.51169e-05
   1.17624 2.57124e-05
   1.21541 2.66501e-05
   1.25457 2.8304e-05
   1.29374 3.04886e-05
    1.3329 3.27218e-05
   1.37207 3.51488e-05
   1.41123 3.72736e-05
    1.4504 3.89158e-05
   1.48956 4.09976e-05
   1.52873 4.3006e-05
   1.56789 4.51411e-05
   1.60706 4.81062e-05
   1.64622 5.13746e-05
   1.68539 5.47902e-05
   1.72107 5.16487e-05
   1.75152 5.22105e-05
   1.77865 5.26931e-05
   1.80281 5.22135e-05
   1.82434 5.13414e-05
   1.84353 5.07799e-05
   1.86062 5.05973e-05
   1.87584 5.05637e-05
   1.88941 5.09882e-05
    1.9015 5.16058e-05
   1.91226 5.22639e-05
   1.92186 5.31265e-05
    1.9304 5.43974e-05
   1.93802 5.61087e-05
    1.9448 5.81694e-05
   1.95084 6.05484e-05
   1.95623 6.32648e-05
   1.96103 6.61465e-05
    1.9653 6.89627e-05
   1.96911 7.15216e-05
    1.9725 7.36224e-05
   1.97552 7.50529e-05
   1.97822 7.57198e-05
   1.98061 7.56352e-05
   1.98275 7.48735e-05
   1.98466 7.35336e-05
   1.98635 7.17355e-05
   1.98786 6.95993e-05
   1.98921 6.72311e-05
   1.99041 6.47099e-05
   1.99148 6.21575e-05
   1.99243 5.91833e-05
   1.99333 5.95745e-05
   1.99421 5.98286e-05
    1.9951 6.00525e-05
     1.996 6.02486e-05
   1.99689 6.03595e-05
   1.99777 6.09658e-05
   1.99867 5.71196e-05
   1.99956 9.72127e-05
         2          0
