         0          0
  0.000445 -4.05276e-06
  0.001335 1.3139e-06
  0.002225 3.83781e-08
  0.003115 8.62957e-08
  0.004005 1.48152e-08
  0.004895 3.55242e-08
  0.005785 4.99414e-08
  0.006675 1.20559e-07
0.00756867 6.87998e-08
0.00852095 1.15805e-08
0.00958982 1.3665e-07
 0.0107896 1.56623e-07
 0.0121362 2.01227e-07
 0.0136477 2.59066e-07
 0.0153442 3.3926e-07
 0.0172484 4.1288e-07
 0.0193858 3.75533e-07
 0.0217849 3.56147e-08
 0.0244777 -8.12779e-07
 0.0275001 -2.26776e-06
 0.0308926 -4.26318e-06
 0.0347005 -6.66255e-06
 0.0389746 -9.31331e-06
 0.0437719 -1.19778e-05
 0.0491566 -1.43536e-05
 0.0552005 -1.61193e-05
 0.0619844 -1.70111e-05
 0.0695988 -1.68662e-05
 0.0781455 -1.55326e-05
 0.0877386 -1.26322e-05
 0.0985062 -8.88695e-06
  0.110592 -4.58589e-06
  0.124158 -6.84624e-08
  0.139384 2.84469e-06
  0.156474 2.81336e-06
  0.175657 4.75577e-06
  0.197189 -5.12429e-08
  0.221357 9.00428e-06
  0.248483 -1.25761e-05
  0.278931 1.3185e-05
  0.314615 -4.46621e-06
   0.35378 -1.1855e-05
  0.392945 -7.14932e-07
   0.43211 -6.26772e-06
  0.471275 1.62705e-06
   0.51044 -5.08437e-06
  0.549604 1.39579e-06
  0.588769 -4.2761e-06
  0.627934 5.2551e-07
  0.667099 -3.49461e-06
  0.706264 8.35941e-08
  0.745429 -2.32024e-06
  0.784593 1.38466e-06
  0.823758 -1.81017e-06
  0.862923 -2.64891e-07
  0.902088 -6.69736e-07
  0.941253 2.78192e-07
  0.980418 -3.51143e-07
   1.01958 1.39086e-06
   1.05875 -1.29635e-06
   1.09791 8.92143e-07
   1.13708 9.77957e-07
   1.17624 1.6366e-07
   1.21541 -6.79469e-07
   1.25457  4.389e-06
   1.29374 -1.98674e-06
    1.3329 3.50905e-06
   1.37207 -8.96627e-07
   1.41123 4.85522e-07
    1.4504 2.53967e-06
   1.48956 4.3161e-06
   1.52873 -4.91023e-07
   1.56789 8.15157e-06
   1.60706 -3.74499e-06
   1.64622 1.82284e-05
   1.68539 7.76054e-07
   1.72107 -1.07311e-05
   1.75152 7.90647e-06
   1.77865 -6.02408e-06
   1.80281 -1.44585e-06
   1.82434 -4.46757e-06
   1.84353 -2.65899e-06
   1.86062 -2.63493e-06
   1.87584 1.27532e-06
   1.88941 4.92235e-06
    1.9015 8.7451e-06
   1.91226 1.22872e-05
   1.92186 1.49681e-05
    1.9304 1.65811e-05
   1.93802 1.69188e-05
    1.9448 1.61029e-05
   1.95084 1.43719e-05
   1.95623 1.19987e-05
   1.96103 9.35654e-06
    1.9653 6.74649e-06
   1.96911 4.34479e-06
    1.9725 2.32016e-06
   1.97552 8.44363e-07
   1.97822 -2.31773e-08
   1.98061 -3.74901e-07
   1.98275 -4.14729e-07
   1.98466 -3.40515e-07
   1.98635 -2.5988e-07
   1.98786 -2.02028e-07
   1.98921 -1.57446e-07
   1.99041 -1.37494e-07
   1.99148 -1.17666e-08
   1.99243 -6.92694e-08
   1.99333 -1.21314e-07
   1.99421 -5.02507e-08
    1.9951 -3.57649e-08
     1.996 -1.49863e-08
   1.99689 -8.68236e-08
   1.99777 -3.87915e-08
   1.99867 -1.31954e-06
   1.99956 4.07039e-06
         2          0
