         0   0.297601
  0.000445   0.195385
  0.001335   0.103858
  0.002225   0.112981
  0.003115   0.111174
  0.004005   0.110299
  0.004895    0.10881
  0.005785   0.106805
  0.006675   0.104213
0.00756867   0.100182
0.00852095  0.0936914
0.00958982  0.0853476
 0.0107896  0.0756573
 0.0121362  0.0641955
 0.0136477  0.0506955
 0.0153442  0.0350815
 0.0172484  0.0176684
 0.0193858 -0.000682834
 0.0217849 -0.0182011
 0.0244777 -0.0320316
 0.0275001 -0.0389229
 0.0308926 -0.0363323
 0.0347005 -0.0236275
 0.0389746 -0.00331519
 0.0437719  0.0191358
 0.0491566  0.0371617
 0.0552005  0.0464467
 0.0619844  0.0473613
 0.0695988   0.040438
 0.0781455  0.0234252
 0.0877386 0.00294729
 0.0985062 -0.00538078
  0.110592 -0.00185586
  0.124158  -0.003821
  0.139384  -0.011301
  0.156474 -0.0148397
  0.175657 -0.0237505
  0.197189 -0.0326575
  0.221357 -0.0241312
  0.248483 -0.00744323
  0.278931 -0.0093624
  0.314615 -0.0290958
   0.35378 -0.0286663
  0.392945 0.000336456
   0.43211  0.0200824
  0.471275  0.0187753
   0.51044 0.00647393
  0.549604 -0.0145045
  0.588769 -0.0280425
  0.627934 -0.0234971
  0.667099 -0.00383875
  0.706264   0.016352
  0.745429   0.019908
  0.784593 0.00782077
  0.823758 -0.00623987
  0.862923 -0.00648614
  0.902088 0.00386976
  0.941253  0.0102258
  0.980418 0.00947052
   1.01958 0.00934154
   1.05875    0.01423
   1.09791  0.0239428
   1.13708  0.0332225
   1.17624  0.0296862
   1.21541  0.0191807
   1.25457   0.012906
   1.29374  0.0126608
    1.3329  0.0095448
   1.37207 -0.0101644
   1.41123   -0.02517
    1.4504 -0.0103252
   1.48956  0.0108088
   1.52873 0.00978628
   1.56789 -0.00950917
   1.60706 -0.0283953
   1.64622 -0.0256554
   1.68539 0.00926897
   1.72107  0.0281763
   1.75152 0.000382179
   1.77865 -0.0311703
   1.80281 -0.0418437
   1.82434 -0.0342682
   1.84353 -0.0185116
   1.86062 -0.00596789
   1.87584 0.00822879
   1.88941  0.0274003
    1.9015  0.0334663
   1.91226  0.0157151
   1.92186 -0.00993723
    1.9304  -0.028477
   1.93802 -0.0405237
    1.9448 -0.0498887
   1.95084 -0.0565288
   1.95623 -0.0578128
   1.96103 -0.0514953
    1.9653 -0.0378843
   1.96911 -0.0197155
    1.9725 -0.000467935
   1.97552  0.0171649
   1.97822  0.0312132
   1.98061   0.040509
   1.98275  0.0453808
   1.98466  0.0473852
   1.98635  0.0480476
   1.98786  0.0482207
   1.98921   0.048302
   1.99041  0.0484792
   1.99148  0.0488695
   1.99243  0.0491569
   1.99333  0.0489412
   1.99421  0.0485328
    1.9951   0.048252
     1.996  0.0480686
   1.99689  0.0479258
   1.99777   0.047984
   1.99867  0.0457597
   1.99956  0.0667326
         2  0.0900596
