         0 -0.00105733
  0.000445 -0.000686259
  0.001335 -0.000454506
  0.002225 -0.000662349
  0.003115 -0.000786691
  0.004005 -0.000881488
  0.004895 -0.000925566
  0.005785 -0.00091087
  0.006675 -0.000829105
0.00756867 -0.000673046
0.00852095 -0.000430892
0.00958982 -9.6251e-05
 0.0107896 0.000332169
 0.0121362 0.000855764
 0.0136477 0.00146528
 0.0153442 0.00214481
 0.0172484 0.00287582
 0.0193858  0.0036241
 0.0217849 0.00431385
 0.0244777 0.00481229
 0.0275001 0.00487895
 0.0308926 0.00438008
 0.0347005 0.00346039
 0.0389746 0.00228717
 0.0437719 0.000949472
 0.0491566 -0.000352335
 0.0552005 -0.00146667
 0.0619844 -0.00232632
 0.0695988 -0.00231486
 0.0781455 -0.000729485
 0.0877386 0.00241279
 0.0985062 0.00648275
  0.110592 0.00994244
  0.124158  0.0118625
  0.139384  0.0125807
  0.156474  0.0109844
  0.175657 0.00702302
  0.197189 0.00350235
  0.221357  0.0015413
  0.248483 0.000403993
  0.278931 -0.000344154
  0.314615 0.000909492
   0.35378 0.00221298
  0.392945 0.000874894
   0.43211 -0.00143672
  0.471275 -0.00329552
   0.51044 -0.00398487
  0.549604 -0.00390439
  0.588769 -0.00340882
  0.627934 -0.00325915
  0.667099 -0.00384764
  0.706264 -0.00446738
  0.745429 -0.00421354
  0.784593 -0.00338769
  0.823758 -0.0025166
  0.862923 -0.00231986
  0.902088 -0.00273083
  0.941253 -0.00313095
  0.980418 -0.00346552
   1.01958 -0.00377001
   1.05875 -0.00377697
   1.09791 -0.00357037
   1.13708  -0.003372
   1.17624 -0.00289149
   1.21541 -0.00177939
   1.25457 -0.000583494
   1.29374 -0.000202771
    1.3329 -0.000286165
   1.37207 -0.000363706
   1.41123 -0.000340047
    1.4504 0.00069566
   1.48956 0.00218755
   1.52873 0.00272734
   1.56789  0.0023572
   1.60706 0.000987272
   1.64622 -0.00178726
   1.68539 -0.00576866
   1.72107 -0.0102378
   1.75152 -0.0132751
   1.77865 -0.0135655
   1.80281 -0.0133455
   1.82434 -0.0134824
   1.84353 -0.0132002
   1.86062 -0.0123346
   1.87584 -0.0112941
   1.88941 -0.00885249
    1.9015 -0.00440973
   1.91226 0.000795114
   1.92186 0.00617768
    1.9304  0.0112157
   1.93802  0.0153453
    1.9448  0.0186667
   1.95084  0.0207752
   1.95623  0.0211617
   1.96103  0.0200375
    1.9653  0.0177739
   1.96911  0.0148054
    1.9725  0.0118795
   1.97552 0.00958929
   1.97822 0.00796274
   1.98061 0.00669888
   1.98275 0.00554139
   1.98466 0.00438004
   1.98635 0.00322653
   1.98786 0.00213519
   1.98921 0.00115171
   1.99041 0.000302242
   1.99148 -0.000403783
   1.99243 -0.000957643
   1.99333 -0.00137475
   1.99421 -0.00166932
    1.9951 -0.00183283
     1.996 -0.00186154
   1.99689 -0.00175191
   1.99777 -0.00154275
   1.99867 -0.00106117
   1.99956 -0.00161095
         2 -0.00252384
