         0 -2.30111e-18
  0.000445 -5.3027e-17
  0.001335 -7.59831e-17
  0.002225 -1.45471e-16
  0.003115 -1.19041e-16
  0.004005 -2.02746e-16
  0.004895 -2.83289e-16
  0.005785 -6.62936e-17
  0.006675 -2.1847e-16
0.00756867 -3.79267e-16
0.00852095 -3.85583e-16
0.00958982 -2.41013e-16
 0.0107896 -1.14362e-16
 0.0121362 2.32359e-17
 0.0136477 1.00747e-16
 0.0153442 -3.12573e-16
 0.0172484 -5.74296e-16
 0.0193858 -2.29345e-16
 0.0217849 -2.54086e-16
 0.0244777 3.84759e-17
 0.0275001 -8.96261e-17
 0.0308926 -6.48104e-17
 0.0347005 -3.74811e-17
 0.0389746 -4.01474e-16
 0.0437719 -2.74802e-17
 0.0491566 -3.03597e-16
 0.0552005 -3.85079e-16
 0.0619844 -2.51852e-16
 0.0695988 -3.15721e-16
 0.0781455 -1.50013e-16
 0.0877386 -2.2881e-16
 0.0985062 4.57656e-17
  0.110592 -6.12932e-17
  0.124158 -2.19065e-16
  0.139384 -1.71085e-16
  0.156474 8.10907e-18
  0.175657 -3.45279e-17
  0.197189 -9.63463e-17
  0.221357 -7.82008e-17
  0.248483 -1.48337e-16
  0.278931 -7.9039e-17
  0.314615 5.36438e-17
   0.35378 -1.05871e-17
  0.392945 9.64118e-17
   0.43211 6.07603e-17
  0.471275 8.39906e-17
   0.51044 4.52083e-18
  0.549604 5.11924e-17
  0.588769 -3.75744e-17
  0.627934 -3.48999e-17
  0.667099  2.359e-17
  0.706264 -2.46414e-18
  0.745429 1.24289e-18
  0.784593 -4.52927e-17
  0.823758 -3.58558e-17
  0.862923 -7.28517e-17
  0.902088 3.08514e-17
  0.941253 -3.22131e-17
  0.980418 9.61675e-18
   1.01958 1.02551e-17
   1.05875 4.2735e-17
   1.09791 -8.45127e-17
   1.13708 5.22127e-17
   1.17624 -6.56186e-17
   1.21541 -5.88996e-17
   1.25457 -7.93698e-17
   1.29374 -2.98805e-17
    1.3329 -4.67848e-17
   1.37207 -1.25405e-16
   1.41123 -5.95035e-17
    1.4504 -3.35887e-17
   1.48956 -4.88543e-17
   1.52873 -1.0691e-16
   1.56789 -1.98881e-16
   1.60706 -1.19709e-16
   1.64622 -8.15836e-17
   1.68539 -9.3503e-18
   1.72107 -3.79219e-17
   1.75152 -7.90651e-17
   1.77865 1.48292e-16
   1.80281 5.71476e-17
   1.82434 2.60975e-16
   1.84353 -1.84444e-16
   1.86062 1.15952e-17
   1.87584 1.07719e-16
   1.88941 1.24238e-16
    1.9015 -1.30944e-16
   1.91226 -8.13205e-17
   1.92186 4.99005e-16
    1.9304 3.98401e-16
   1.93802 4.58034e-16
    1.9448 4.01936e-16
   1.95084 7.25162e-16
   1.95623 1.39799e-15
   1.96103 8.98623e-16
    1.9653  1.133e-15
   1.96911 7.25375e-16
    1.9725 6.95284e-16
   1.97552 5.04166e-16
   1.97822 3.47455e-17
   1.98061 4.45208e-16
   1.98275 1.7674e-15
   1.98466 -8.03269e-17
   1.98635 -9.76996e-17
   1.98786 3.32783e-16
   1.98921 3.11395e-17
   1.99041 2.26903e-16
   1.99148 5.61968e-16
   1.99243 -8.46407e-16
   1.99333 5.87095e-16
   1.99421 1.79297e-16
    1.9951 1.03006e-15
     1.996 2.60854e-16
   1.99689 3.53713e-16
   1.99777 2.45581e-18
   1.99867 3.88041e-16
   1.99956 1.91733e-16
         2    1.8e-17
