         0 -1.96413e-18
  0.000445 4.75141e-18
  0.001335 6.03864e-18
  0.002225 4.45477e-18
  0.003115 -2.4693e-17
  0.004005 3.6416e-18
  0.004895 -2.54272e-17
  0.005785 1.94185e-17
  0.006675 -5.40304e-18
0.00756867 3.1125e-17
0.00852095 -1.40263e-17
0.00958982 -1.18947e-18
 0.0107896 1.79069e-17
 0.0121362 -2.83448e-17
 0.0136477 -1.12407e-17
 0.0153442 2.10884e-17
 0.0172484 4.90163e-18
 0.0193858 2.15591e-17
 0.0217849 7.33025e-19
 0.0244777 -6.11183e-17
 0.0275001 4.01271e-17
 0.0308926 -5.90511e-17
 0.0347005 3.14374e-18
 0.0389746 -6.54618e-17
 0.0437719 -2.94398e-17
 0.0491566 6.23331e-17
 0.0552005 -2.27403e-17
 0.0619844 -2.42195e-18
 0.0695988 -8.98809e-18
 0.0781455 -7.36042e-17
 0.0877386 -3.91978e-17
 0.0985062 -6.25278e-18
  0.110592 1.36102e-17
  0.124158 -2.1807e-17
  0.139384 1.7137e-17
  0.156474 1.82368e-18
  0.175657 3.74326e-18
  0.197189 -1.26421e-17
  0.221357 4.18615e-17
  0.248483 -1.59114e-17
  0.278931 -1.37221e-17
  0.314615 -5.07414e-18
   0.35378 -2.96191e-17
  0.392945 1.05387e-17
   0.43211 2.51757e-18
  0.471275 -1.9122e-17
   0.51044 -3.11151e-17
  0.549604 -5.20993e-18
  0.588769 -5.73279e-17
  0.627934 -2.59694e-17
  0.667099 2.60962e-17
  0.706264 -1.48333e-18
  0.745429 2.63019e-18
  0.784593 -3.53904e-17
  0.823758 -2.48188e-17
  0.862923 -6.6662e-18
  0.902088 -1.03617e-17
  0.941253 -1.36138e-17
  0.980418 -3.38151e-17
   1.01958 -2.84803e-17
   1.05875 2.2721e-17
   1.09791 -1.85164e-17
   1.13708 1.14538e-17
   1.17624 -3.42919e-17
   1.21541 3.82097e-18
   1.25457 -1.40807e-17
   1.29374 1.60622e-18
    1.3329 7.97744e-18
   1.37207 -3.30976e-17
   1.41123 6.51381e-18
    1.4504 6.71061e-18
   1.48956 8.05016e-18
   1.52873 -3.08485e-17
   1.56789 4.40819e-19
   1.60706 7.66546e-17
   1.64622 -4.36755e-17
   1.68539 2.92093e-18
   1.72107 4.15952e-18
   1.75152 -1.94063e-17
   1.77865 -3.8881e-17
   1.80281 4.02621e-17
   1.82434 -8.0852e-19
   1.84353 2.50411e-18
   1.86062 -3.68106e-17
   1.87584 3.09169e-17
   1.88941 5.55478e-17
    1.9015 -7.6078e-18
   1.91226  5.701e-18
   1.92186 1.75615e-17
    1.9304 1.75787e-17
   1.93802 -8.69971e-18
    1.9448 -4.54203e-17
   1.95084 4.46149e-17
   1.95623 8.63726e-17
   1.96103 3.80995e-17
    1.9653 -4.38832e-17
   1.96911 2.09105e-17
    1.9725 5.21053e-17
   1.97552 -3.25437e-17
   1.97822 -4.59127e-17
   1.98061 -3.15267e-17
   1.98275 7.16469e-18
   1.98466 -1.41109e-16
   1.98635 -6.31606e-17
   1.98786 6.85155e-17
   1.98921 -9.50719e-18
   1.99041 2.76097e-17
   1.99148 -4.90096e-17
   1.99243 6.29745e-17
   1.99333 2.96164e-17
   1.99421 -6.92851e-17
    1.9951 -6.95103e-17
     1.996 -1.11302e-16
   1.99689 -1.79408e-17
   1.99777 6.65958e-17
   1.99867 -4.87174e-17
   1.99956 2.56497e-17
         2 1.35054e-17
