         0  0.0425167
  0.000445  0.0293277
  0.001335  0.0174437
  0.002225  0.0185766
  0.003115  0.0184018
  0.004005  0.0183731
  0.004895  0.0183182
  0.005785  0.0182524
  0.006675  0.0181739
0.00756867  0.0179505
0.00852095  0.0174441
0.00958982  0.0167962
 0.0107896  0.0161333
 0.0121362  0.0154386
 0.0136477  0.0147161
 0.0153442  0.0139735
 0.0172484  0.0132207
 0.0193858  0.0124642
 0.0217849  0.0117029
 0.0244777  0.0109144
 0.0275001  0.0100485
 0.0308926 0.00905842
 0.0347005 0.00787741
 0.0389746 0.00638877
 0.0437719 0.00453265
 0.0491566 0.00243393
 0.0552005 0.000451563
 0.0619844 -0.000888387
 0.0695988 -0.00111529
 0.0781455 4.7569e-05
 0.0877386 0.00258379
 0.0985062 0.00588137
  0.110592 0.00885689
  0.124158  0.0103563
  0.139384  0.0098958
  0.156474 0.00799721
  0.175657 0.00515337
  0.197189 0.00188677
  0.221357 -0.000447895
  0.248483 -0.000580714
  0.278931 0.00138759
  0.314615 0.00437675
   0.35378 0.00613961
  0.392945 0.00340126
   0.43211 -0.0022271
  0.471275 -0.00457037
   0.51044 -0.00321374
  0.549604 -0.0019252
  0.588769 -0.00143857
  0.627934 -0.00232395
  0.667099 -0.00441896
  0.706264 -0.0054969
  0.745429 -0.00523414
  0.784593 -0.0040567
  0.823758 -0.00284703
  0.862923 -0.00278583
  0.902088 -0.00309849
  0.941253 -0.00362511
  0.980418 -0.00521639
   1.01958 -0.00650125
   1.05875 -0.00587924
   1.09791 -0.00405807
   1.13708 -0.00210589
   1.17624 -0.000763034
   1.21541 0.000447834
   1.25457 0.000574984
   1.29374 -0.00141595
    1.3329 -0.00285589
   1.37207 -0.00266983
   1.41123 -0.00189386
    1.4504 9.27253e-05
   1.48956 0.00305499
   1.52873 0.00506656
   1.56789 0.00528611
   1.60706 0.00318111
   1.64622 0.000440785
   1.68539 -0.00124428
   1.72107 -0.00368312
   1.75152 -0.00619007
   1.77865 -0.0067417
   1.80281 -0.00672961
   1.82434 -0.00734565
   1.84353 -0.00787886
   1.86062 -0.00763872
   1.87584 -0.00627081
   1.88941 -0.00386836
    1.9015 -0.000985004
   1.91226 0.00193579
   1.92186 0.00482945
    1.9304 0.00781688
   1.93802  0.0108174
    1.9448   0.013564
   1.95084  0.0157959
   1.95623  0.0174737
   1.96103  0.0188534
    1.9653  0.0202438
   1.96911  0.0218114
    1.9725  0.0235994
   1.97552  0.0255817
   1.97822  0.0276966
   1.98061  0.0298738
   1.98275  0.0320442
   1.98466  0.0341509
   1.98635  0.0361595
   1.98786   0.038059
   1.98921  0.0398544
   1.99041  0.0415539
   1.99148  0.0432085
   1.99243  0.0445082
   1.99333   0.045103
   1.99421  0.0453341
    1.9951   0.045524
     1.996  0.0456716
   1.99689  0.0457332
   1.99777  0.0461207
   1.99867    0.04324
   1.99956   0.072324
         2    0.10468
