         0  -0.591373
  0.000445   -0.19738
  0.001335 -0.0250613
  0.002225 -0.0370778
  0.003115 -0.0361714
  0.004005 -0.0367697
  0.004895 -0.0369421
  0.005785 -0.0370531
  0.006675 -0.0371875
0.00756867 -0.0367008
0.00852095 -0.0349798
0.00958982 -0.0330838
 0.0107896 -0.0318322
 0.0121362 -0.0312348
 0.0136477 -0.0313501
 0.0153442 -0.0320287
 0.0172484 -0.0328538
 0.0193858 -0.0333061
 0.0217849 -0.0328642
 0.0244777 -0.0310162
 0.0275001 -0.0280532
 0.0308926 -0.0248744
 0.0347005 -0.0218115
 0.0389746 -0.0195713
 0.0437719 -0.0190547
 0.0491566 -0.0198614
 0.0552005   -0.02015
 0.0619844 -0.0186949
 0.0695988 -0.0153272
 0.0781455 -0.0115034
 0.0877386 -0.00841092
 0.0985062 -0.00452458
  0.110592 0.000606072
  0.124158 0.00313483
  0.139384  0.0032135
  0.156474 0.00293156
  0.175657 0.00208119
  0.197189 0.00260518
  0.221357 0.00336239
  0.248483 0.00347613
  0.278931 0.000901249
  0.314615 0.000231039
   0.35378 -0.000446655
  0.392945 -0.00171313
   0.43211 -0.000595646
  0.471275 -0.00172688
   0.51044 -0.00236065
  0.549604 -0.00279004
  0.588769 -0.00240595
  0.627934 -0.00199319
  0.667099 -0.00167197
  0.706264 -0.00182051
  0.745429 -0.00248719
  0.784593 -0.00174392
  0.823758 -0.000653043
  0.862923 -0.000151078
  0.902088 -5.05729e-05
  0.941253 0.000267482
  0.980418 0.000966804
   1.01958 0.00162607
   1.05875 0.00182871
   1.09791 0.00188415
   1.13708  0.0017431
   1.17624 0.000738382
   1.21541 -0.000208216
   1.25457 -0.000503941
   1.29374 -0.000695053
    1.3329 -0.00030762
   1.37207 -6.92144e-06
   1.41123 0.000908319
    1.4504 0.000814066
   1.48956 0.00223786
   1.52873 0.00219407
   1.56789 0.000234161
   1.60706 -0.00123974
   1.64622 -3.12444e-05
   1.68539 0.00346461
   1.72107 0.00565725
   1.75152  0.0053359
   1.77865 0.00724556
   1.80281  0.0100397
   1.82434  0.0105138
   1.84353  0.0115345
   1.86062  0.0104047
   1.87584 0.00808679
   1.88941 0.00680969
    1.9015 0.00578246
   1.91226  0.0059242
   1.92186  0.0038571
    1.9304 8.8454e-07
   1.93802 -0.00259254
    1.9448 -0.00450928
   1.95084 -0.00556788
   1.95623 -0.00490924
   1.96103 -0.00286703
    1.9653 0.000723275
   1.96911  0.0059392
    1.9725  0.0118202
   1.97552  0.0173496
   1.97822  0.0215489
   1.98061  0.0241175
   1.98275  0.0257276
   1.98466  0.0272903
   1.98635  0.0292296
   1.98786  0.0314892
   1.98921  0.0338113
   1.99041  0.0359224
   1.99148  0.0377818
   1.99243  0.0385154
   1.99333  0.0369848
   1.99421   0.033939
    1.9951  0.0301979
     1.996  0.0258158
   1.99689  0.0206972
   1.99777   0.016197
   1.99867 0.00460101
   1.99956  0.0769345
         2    0.27272
