         0 -1.24876e-07
 0.0002225 -1.24876e-07
 0.0006675 -8.063e-07
 0.0011125 -2.00749e-06
 0.0015575 -3.47383e-06
 0.0020025 -4.90841e-06
 0.0024475 -6.02344e-06
 0.0028925 -6.59435e-06
 0.0033375 -6.49643e-06
 0.0037825 -5.71776e-06
 0.0042275 -4.34782e-06
 0.0046725 -2.55568e-06
 0.0051175 -5.60027e-07
 0.0055625 1.40991e-06
 0.0060075 3.15829e-06
 0.0064525 4.55482e-06
 0.0068975 5.54151e-06
 0.0073476 6.13153e-06
0.00781612 6.38606e-06
0.00831203 6.37244e-06
0.00883694 6.1887e-06
0.00939255 5.9468e-06
0.00998065 5.75192e-06
 0.0106031 5.70234e-06
  0.011262 5.86298e-06
 0.0119594 6.24284e-06
 0.0126977 6.80758e-06
  0.013479 7.4844e-06
 0.0143061 8.17024e-06
 0.0151815 8.70708e-06
 0.0161082 8.91056e-06
  0.017089 8.7122e-06
 0.0181271 8.2303e-06
  0.019226 7.68773e-06
 0.0203891 7.22405e-06
 0.0216203 6.84854e-06
 0.0229234 6.50318e-06
 0.0243028 6.04767e-06
 0.0257628 5.28601e-06
 0.0273082 4.38709e-06
  0.028944 4.22979e-06
 0.0306754 5.31024e-06
 0.0325081 6.50988e-06
 0.0344479 6.31898e-06
 0.0365012 4.79193e-06
 0.0386746 2.8864e-06
  0.040975 1.08247e-06
   0.04341 2.54578e-07
 0.0459873 1.32836e-06
 0.0487154 2.58168e-06
  0.051603 1.75174e-06
 0.0546595 -1.06481e-06
 0.0578947 -4.77947e-06
 0.0613191 -7.78791e-06
 0.0649437 -9.25815e-06
 0.0687803 -1.05895e-05
 0.0728413 -1.33611e-05
 0.0771397 -1.55742e-05
 0.0816895 -1.36611e-05
 0.0865054 -8.1378e-06
 0.0916029 -2.97967e-06
 0.0969985 -2.13228e-07
   0.10271 6.13356e-07
  0.108755 1.53772e-06
  0.115153 3.84557e-06
  0.121926 6.98846e-06
  0.129095 1.06076e-05
  0.136683 1.36099e-05
  0.144715 8.98046e-06
  0.153216 -2.09976e-07
  0.162214 -4.25491e-06
  0.171739 -2.24955e-06
  0.181821 -2.25242e-06
  0.192492 -4.68308e-06
  0.203788 -9.68482e-06
  0.215744 -1.37538e-05
  0.228399 -9.14678e-06
  0.241794 -1.122e-05
  0.255972 -1.75613e-05
   0.27098 -1.85627e-05
  0.286865 -1.10791e-05
  0.304824 -3.865e-07
  0.324407 -9.74686e-08
  0.343989 -1.80019e-06
  0.363571 1.53725e-06
  0.383154 2.39555e-06
  0.402736 1.71388e-06
  0.422319 2.63376e-06
  0.441901 3.86682e-06
  0.461484 -9.74397e-07
  0.481066 -5.74303e-06
  0.500648 -6.22821e-06
  0.520231 -3.28852e-06
  0.539813 8.03691e-07
  0.559396 -1.46159e-06
  0.578978 -4.40673e-06
   0.59856 -1.85502e-06
  0.618143 1.93543e-06
  0.637725 3.37142e-06
  0.657308 4.60991e-08
   0.67689 -1.11013e-06
  0.696473 -1.61867e-06
  0.716055 -2.03114e-06
  0.735637 -3.53572e-06
   0.75522 -8.01324e-06
  0.774802 -6.83174e-06
  0.794385 -3.95735e-06
  0.813967 -5.81535e-07
  0.833549 1.14154e-07
  0.853132 -3.66978e-06
  0.872714 3.06635e-08
  0.892297 3.29604e-06
  0.911879 3.70888e-06
  0.931462 -2.35535e-07
  0.951044 -7.64611e-07
  0.970626 4.33068e-06
  0.990209 5.97445e-06
   1.00979 5.08723e-06
   1.02937 6.54658e-06
   1.04896 5.54113e-06
   1.06854 3.52771e-06
   1.08812 7.12483e-07
    1.1077 2.30153e-06
   1.12729 3.85265e-06
   1.14687 3.68164e-06
   1.16645 1.75777e-06
   1.18603 -1.10468e-06
   1.20562 -2.99583e-06
    1.2252 -3.41303e-06
   1.24478 -2.72167e-06
   1.26436 -3.93262e-06
   1.28395 -4.57387e-06
   1.30353 -4.01563e-07
   1.32311 -1.69548e-06
   1.34269 -1.08236e-07
   1.36228 2.47412e-06
   1.38186 -1.51358e-06
   1.40144 3.09291e-06
   1.42102 4.58289e-06
   1.44061 -3.40295e-07
   1.46019 -2.47312e-06
   1.47977 -5.38812e-06
   1.49935 -7.54636e-07
   1.51894 3.55391e-06
   1.53852 3.73329e-06
    1.5581 5.29979e-06
   1.57768 8.5812e-06
   1.59727 6.23505e-06
   1.61685 8.09642e-06
   1.63643 5.92102e-06
   1.65601 7.79785e-07
    1.6756 7.48019e-06
   1.69518 8.89242e-06
   1.71314 8.59271e-06
   1.72902 4.50302e-06
   1.74403 -4.66471e-06
   1.75821 -4.76983e-06
    1.7716 -2.70472e-06
   1.78426 2.59856e-06
   1.79621 9.05029e-06
   1.80751 8.82685e-06
   1.81818 5.41279e-06
   1.82826 3.39928e-06
   1.83779 3.44743e-06
   1.84679 2.17961e-06
   1.85529 -1.1899e-06
   1.86332 1.56853e-06
   1.87091 7.00593e-06
   1.87808 1.11816e-05
   1.88485 9.42195e-06
   1.89125 4.78482e-06
   1.89729 2.22706e-06
     1.903 3.61804e-07
    1.9084 -2.05529e-06
    1.9135 -5.99493e-06
   1.91831 -1.045e-05
   1.92286 -1.46105e-05
   1.92716 -1.70704e-05
   1.93122 -1.62487e-05
   1.93506 -1.16989e-05
   1.93868 -6.60055e-06
   1.94211 -4.78939e-06
   1.94534 -5.10571e-06
    1.9484 -5.86204e-06
   1.95129 -7.11015e-06
   1.95401 -8.7967e-06
   1.95659 -1.02926e-05
   1.95903 -1.0423e-05
   1.96133 -8.39498e-06
    1.9635 -4.85131e-06
   1.96555 -8.69565e-07
   1.96749 2.77249e-06
   1.96933 6.06152e-06
   1.97106 9.29458e-06
   1.97269 1.29651e-05
   1.97424 1.74552e-05
    1.9757 2.24364e-05
   1.97708 2.7118e-05
   1.97838 3.08144e-05
   1.97961 3.33282e-05
   1.98077 3.46993e-05
   1.98187 3.48693e-05
   1.98291 3.38586e-05
   1.98389 3.18072e-05
   1.98482 2.88407e-05
   1.98569 2.50252e-05
   1.98652 2.03336e-05
    1.9873 1.47219e-05
   1.98804 8.24947e-06
   1.98874 1.10486e-06
    1.9894 -6.39025e-06
   1.99002 -1.38397e-05
   1.99061 -2.08812e-05
   1.99116 -2.72156e-05
   1.99169 -3.26263e-05
   1.99218 -3.69895e-05
   1.99265 -4.02738e-05
    1.9931 -4.25374e-05
   1.99355 -4.38125e-05
   1.99399 -4.40531e-05
   1.99444 -4.32161e-05
   1.99488 -4.12934e-05
   1.99533 -3.83256e-05
   1.99577 -3.44297e-05
   1.99622 -2.97966e-05
   1.99666 -2.46864e-05
   1.99711 -1.94175e-05
   1.99755 -1.43315e-05
     1.998 -9.74564e-06
   1.99844 -5.91243e-06
   1.99889 -2.99806e-06
   1.99933 -1.07617e-06
   1.99978 -1.47389e-07
         2 -1.47389e-07
