         0 -0.000403177
 0.0002225 -0.000403177
 0.0006675 -0.00282683
 0.0011125 -0.00775695
 0.0015575 -0.0152189
 0.0020025 -0.0250743
 0.0024475 -0.0370059
 0.0028925 -0.0505336
 0.0033375 -0.0650568
 0.0037825 -0.0799144
 0.0042275   -0.09445
 0.0046725   -0.10807
 0.0051175  -0.120289
 0.0055625   -0.13075
 0.0060075  -0.139236
 0.0064525  -0.145657
 0.0068975  -0.150037
 0.0073476  -0.152514
0.00781612  -0.153215
0.00831203  -0.152132
0.00883694  -0.149285
0.00939255  -0.144771
0.00998065  -0.138757
 0.0106031   -0.13147
  0.011262  -0.123178
 0.0119594   -0.11417
 0.0126977  -0.104737
  0.013479 -0.0951552
 0.0143061 -0.0856693
 0.0151815 -0.0764843
 0.0161082 -0.0677598
  0.017089 -0.0596102
 0.0181271 -0.0521071
  0.019226 -0.0452849
 0.0203891  -0.039148
 0.0216203 -0.0336771
 0.0229234 -0.0288361
 0.0243028  -0.024578
 0.0257628 -0.0208501
 0.0273082 -0.0175983
  0.028944 -0.0147701
 0.0306754 -0.0123162
 0.0325081 -0.0101907
 0.0344479 -0.00835176
 0.0365012 -0.00676301
 0.0386746 -0.00539448
  0.040975 -0.00421958
   0.04341 -0.00321215
 0.0459873 -0.00234836
 0.0487154 -0.00160918
  0.051603 -0.000980379
 0.0546595 -0.000449874
 0.0578947 -2.52846e-06
 0.0613191 0.000376338
 0.0649437 0.000693403
 0.0687803 0.000956694
 0.0728413 0.00117819
 0.0771397 0.00136277
 0.0816895 0.00151487
 0.0865054 0.00164237
 0.0916029 0.00175074
 0.0969985 0.00184209
   0.10271 0.00191548
  0.108755 0.00197051
  0.115153 0.00201675
  0.121926 0.00205973
  0.129095 0.00209651
  0.136683 0.00212537
  0.144715 0.00214974
  0.153216 0.00217499
  0.162214 0.00220148
  0.171739 0.00222399
  0.181821  0.0022374
  0.192492 0.00225338
  0.203788 0.00226201
  0.215744 0.00226891
  0.228399 0.00228432
  0.241794 0.00229155
  0.255972 0.00230744
   0.27098 0.00231331
  0.286865 0.00234521
  0.304824 0.00233585
  0.324407 0.00230735
  0.343989 0.00231421
  0.363571 0.00231579
  0.383154 0.00232637
  0.402736 0.00232721
  0.422319 0.00233344
  0.441901 0.00234174
  0.461484 0.00233942
  0.481066 0.00233942
  0.500648 0.00234423
  0.520231 0.00235118
  0.539813 0.00235993
  0.559396 0.00236201
  0.578978 0.00236109
   0.59856 0.00236074
  0.618143 0.00235982
  0.637725 0.00235934
  0.657308 0.00235766
   0.67689 0.00235766
  0.696473  0.0023582
  0.716055 0.00235762
  0.735637  0.0023557
   0.75522 0.00235661
  0.774802 0.00235604
  0.794385 0.00235136
  0.813967 0.00234882
  0.833549 0.00234853
  0.853132 0.00234874
  0.872714 0.00234518
  0.892297 0.00234386
  0.911879 0.00234114
  0.931462 0.00233864
  0.951044 0.00233506
  0.970626   0.002332
  0.990209 0.00233294
   1.00979 0.00233447
   1.02937 0.00233736
   1.04896 0.00233813
   1.06854 0.00233847
   1.08812 0.00233816
    1.1077 0.00233905
   1.12729 0.00234364
   1.14687 0.00234452
   1.16645 0.00234229
   1.18603 0.00234568
   1.20562 0.00235002
    1.2252 0.00234893
   1.24478 0.00234866
   1.26436 0.00234783
   1.28395 0.00234745
   1.30353 0.00234812
   1.32311 0.00234903
   1.34269 0.00234806
   1.36228 0.00234788
   1.38186 0.00234777
   1.40144 0.00234658
   1.42102 0.00234246
   1.44061 0.00234238
   1.46019 0.00233714
   1.47977 0.00233416
   1.49935 0.00233631
   1.51894 0.00233605
   1.53852 0.00233002
    1.5581 0.00232249
   1.57768 0.00231177
   1.59727 0.00231315
   1.61685 0.00231138
   1.63643  0.0022974
   1.65601 0.00228577
    1.6756  0.0022754
   1.69518 0.00231756
   1.71314 0.00233106
   1.72902 0.00228841
   1.74403 0.00228855
   1.75821 0.00227233
    1.7716 0.00226267
   1.78426 0.00225437
   1.79621 0.00224336
   1.80751   0.002226
   1.81818 0.00220614
   1.82826   0.002186
   1.83779 0.00216482
   1.84679 0.00213855
   1.85529 0.00211582
   1.86332 0.00209356
   1.87091 0.00206791
   1.87808 0.00203415
   1.88485 0.00199207
   1.89125 0.00194095
   1.89729 0.00187473
     1.903 0.00179988
    1.9084 0.00171444
    1.9135 0.00160626
   1.91831  0.0014763
   1.92286 0.00132401
   1.92716 0.00114349
   1.93122 0.000928921
   1.93506 0.000670029
   1.93868 0.000357549
   1.94211 -1.42175e-05
   1.94534 -0.000457433
    1.9484 -0.000985455
   1.95129 -0.00160874
   1.95401 -0.00234089
   1.95659 -0.00319968
   1.95903 -0.00420515
   1.96133 -0.00537819
    1.9635 -0.00674213
   1.96555 -0.00832568
   1.96749 -0.0101618
   1.96933 -0.0122866
   1.97106 -0.0147395
   1.97269 -0.0175658
   1.97424 -0.0208152
    1.9757 -0.0245402
   1.97708 -0.0287941
   1.97838 -0.0336284
   1.97961 -0.0390896
   1.98077 -0.0452143
   1.98187 -0.0520227
   1.98291 -0.0595121
   1.98389 -0.0676489
   1.98482 -0.0763626
   1.98569 -0.0855397
   1.98652 -0.0950215
    1.9873  -0.104604
   1.98804  -0.114043
   1.98874  -0.123063
    1.9894  -0.131373
   1.99002  -0.138684
   1.99061  -0.144726
   1.99116  -0.149273
   1.99169  -0.152154
   1.99218  -0.153272
   1.99265  -0.152605
    1.9931  -0.150158
   1.99355  -0.145806
   1.99399  -0.139407
   1.99444  -0.130938
   1.99488  -0.120486
   1.99533  -0.108268
   1.99577 -0.0946396
   1.99622 -0.0800882
   1.99666 -0.0652082
   1.99711 -0.0506583
   1.99755 -0.0371018
     1.998  -0.025142
   1.99844 -0.0152615
   1.99889 -0.00777934
   1.99933 -0.00283523
   1.99978 -0.000404419
         2 -0.000404419
