         0 2.18922e-21
 0.0002225 -3.43269e-22
 0.0006675 -6.76264e-21
 0.0011125 -3.80425e-20
 0.0015575 -7.72432e-20
 0.0020025 -9.75917e-20
 0.0024475 1.29651e-19
 0.0028925 -2.12634e-20
 0.0033375 -8.1043e-19
 0.0037825 -1.26622e-18
 0.0042275 -9.89783e-19
 0.0046725 -2.98149e-19
 0.0051175 -2.41706e-19
 0.0055625 -2.05283e-18
 0.0060075 -4.59901e-19
 0.0064525 -1.31612e-18
 0.0068975 -3.9118e-18
 0.0073476 -1.47992e-18
0.00781612 -1.72623e-18
0.00831203 4.09959e-19
0.00883694 -4.3146e-19
0.00939255 -2.0167e-19
0.00998065 9.35411e-18
 0.0106031 4.56454e-18
  0.011262 -2.66124e-19
 0.0119594 -8.26101e-19
 0.0126977 5.3132e-19
  0.013479 -1.51469e-18
 0.0143061 2.09406e-18
 0.0151815 -4.04076e-18
 0.0161082 -6.92042e-18
  0.017089 9.14165e-19
 0.0181271 8.51087e-18
  0.019226 9.6069e-19
 0.0203891 4.16958e-19
 0.0216203 6.96549e-18
 0.0229234 -9.60256e-19
 0.0243028  3.249e-18
 0.0257628 6.89126e-18
 0.0273082 1.04738e-17
  0.028944 2.39227e-18
 0.0306754 8.02912e-18
 0.0325081 2.96116e-18
 0.0344479 3.90889e-18
 0.0365012 5.18646e-18
 0.0386746 2.28997e-18
  0.040975 5.87563e-18
   0.04341 -6.21928e-18
 0.0459873 1.58562e-18
 0.0487154 8.09842e-18
  0.051603 2.56312e-18
 0.0546595 1.65649e-18
 0.0578947 1.32702e-17
 0.0613191 6.26377e-18
 0.0649437 9.65816e-18
 0.0687803 6.61385e-18
 0.0728413 3.08653e-18
 0.0771397 5.93366e-18
 0.0816895 1.35721e-18
 0.0865054 3.46221e-18
 0.0916029 3.0865e-18
 0.0969985 1.46011e-18
   0.10271 -2.01512e-18
  0.108755 -3.60437e-18
  0.115153 -5.24615e-18
  0.121926 2.61399e-18
  0.129095 2.85841e-18
  0.136683 3.37994e-19
  0.144715 2.58975e-18
  0.153216 -6.72899e-19
  0.162214 -3.53306e-18
  0.171739 -3.3955e-18
  0.181821 -1.01377e-19
  0.192492 -2.79804e-18
  0.203788 -2.31575e-18
  0.215744 -3.11159e-18
  0.228399 -8.97072e-18
  0.241794 -3.45404e-18
  0.255972 -3.76274e-18
   0.27098 -4.47168e-18
  0.286865 -8.29781e-18
  0.304824 -4.3756e-18
  0.324407 1.70563e-18
  0.343989 -8.12996e-19
  0.363571 3.44605e-18
  0.383154 6.07934e-19
  0.402736 8.82489e-19
  0.422319 -8.34766e-19
  0.441901 -6.16669e-18
  0.461484 -2.25704e-18
  0.481066 -8.12054e-18
  0.500648 -2.86194e-18
  0.520231 -2.14803e-18
  0.539813 4.41808e-19
  0.559396 -1.83184e-18
  0.578978 -5.67567e-18
   0.59856 4.26794e-19
  0.618143 -4.58479e-18
  0.637725 2.08436e-18
  0.657308 -6.68382e-18
   0.67689 5.23067e-19
  0.696473 -1.1343e-18
  0.716055 5.96805e-18
  0.735637 -1.97813e-18
   0.75522 -1.193e-18
  0.774802 -1.63319e-18
  0.794385 2.89008e-18
  0.813967 -2.3365e-18
  0.833549 -3.77854e-18
  0.853132 -1.50682e-18
  0.872714 -6.66803e-19
  0.892297 -2.70704e-20
  0.911879 3.45583e-18
  0.931462 -2.66162e-18
  0.951044 -8.87209e-19
  0.970626 -2.46919e-18
  0.990209 -2.31327e-18
   1.00979 -2.28092e-18
   1.02937 -9.44928e-19
   1.04896 -5.03798e-19
   1.06854 1.04545e-18
   1.08812 -1.94285e-19
    1.1077 4.30436e-18
   1.12729 3.49218e-18
   1.14687 -8.111e-19
   1.16645 -1.28606e-18
   1.18603 1.29437e-18
   1.20562 1.20611e-18
    1.2252 2.52554e-18
   1.24478 6.57378e-19
   1.26436 -1.10823e-19
   1.28395 3.19834e-18
   1.30353 6.01507e-19
   1.32311 -1.02905e-18
   1.34269 -6.06817e-18
   1.36228 -5.39593e-18
   1.38186 -9.99209e-19
   1.40144 -1.61269e-18
   1.42102 -2.9524e-18
   1.44061 2.85674e-19
   1.46019 -3.19595e-18
   1.47977 -3.07379e-18
   1.49935 6.42273e-19
   1.51894 1.77362e-18
   1.53852 8.6388e-18
    1.5581 4.56364e-18
   1.57768 2.2555e-18
   1.59727 3.66184e-18
   1.61685 2.14666e-18
   1.63643 -6.75926e-19
   1.65601 3.71005e-18
    1.6756 1.52299e-18
   1.69518 9.35666e-19
   1.71314 -3.33835e-18
   1.72902 1.31084e-18
   1.74403 -1.32541e-18
   1.75821 3.17852e-18
    1.7716 -3.61714e-18
   1.78426 -1.67843e-19
   1.79621 -4.64839e-18
   1.80751 -5.38599e-18
   1.81818 1.70079e-18
   1.82826 -4.2286e-18
   1.83779 -4.16445e-18
   1.84679 -7.58477e-18
   1.85529 -3.6483e-18
   1.86332 1.16813e-18
   1.87091 -5.27099e-18
   1.87808 6.98906e-18
   1.88485 3.97918e-18
   1.89125 6.91995e-18
   1.89729 7.42274e-18
     1.903 4.22204e-18
    1.9084 1.84203e-18
    1.9135 5.31873e-18
   1.91831 5.58574e-18
   1.92286 3.7572e-18
   1.92716 2.49106e-20
   1.93122 1.73974e-17
   1.93506 -3.97495e-19
   1.93868 -2.60788e-18
   1.94211 2.0446e-17
   1.94534 -8.17992e-18
    1.9484 5.12632e-18
   1.95129 1.28793e-18
   1.95401 -8.60312e-18
   1.95659 4.65489e-18
   1.95903 7.8329e-18
   1.96133 -4.32869e-18
    1.9635 1.05163e-17
   1.96555 1.15941e-17
   1.96749 2.48367e-17
   1.96933 -6.5754e-18
   1.97106 9.89247e-18
   1.97269 9.11281e-18
   1.97424 -9.1482e-18
    1.9757 3.10661e-17
   1.97708 3.15269e-19
   1.97838 2.30857e-17
   1.97961 7.69523e-18
   1.98077 -2.69254e-17
   1.98187 -1.57415e-17
   1.98291 3.62687e-17
   1.98389 -5.47552e-18
   1.98482 6.50806e-18
   1.98569 -9.05023e-18
   1.98652 -7.16406e-19
    1.9873 1.85472e-17
   1.98804 4.6042e-18
   1.98874 -1.67347e-17
    1.9894 6.84541e-18
   1.99002 -1.96389e-17
   1.99061 3.74979e-17
   1.99116 -3.21978e-17
   1.99169 -2.53066e-17
   1.99218 2.87926e-17
   1.99265 6.56028e-18
    1.9931 -7.22202e-18
   1.99355 1.81367e-17
   1.99399 -3.32427e-17
   1.99444 2.57913e-17
   1.99488 -7.78655e-18
   1.99533 1.29197e-18
   1.99577 2.08593e-18
   1.99622 -7.00272e-18
   1.99666 -1.24912e-18
   1.99711 5.19602e-18
   1.99755 -2.81355e-18
     1.998 -6.79275e-19
   1.99844 2.20786e-18
   1.99889 -1.68427e-19
   1.99933 2.63228e-19
   1.99978 4.87422e-20
         2 4.73305e-20
