         0 2.75655e-22
 0.0002225 -4.44237e-23
 0.0006675 1.13602e-21
 0.0011125 -1.21949e-21
 0.0015575 -2.06317e-21
 0.0020025 1.63857e-20
 0.0024475 -2.9189e-20
 0.0028925 8.20741e-22
 0.0033375 5.15085e-20
 0.0037825 -1.16395e-19
 0.0042275 -8.72924e-20
 0.0046725 -2.66814e-20
 0.0051175 -6.94944e-20
 0.0055625 7.4868e-20
 0.0060075 -1.77636e-20
 0.0064525 -1.20392e-19
 0.0068975 -3.06932e-20
 0.0073476 -2.70504e-19
0.00781612 -1.80588e-19
0.00831203 -5.32649e-20
0.00883694 5.66185e-20
0.00939255 -3.29663e-19
0.00998065 4.6201e-20
 0.0106031 -1.97527e-19
  0.011262 -4.33122e-19
 0.0119594 -3.44614e-19
 0.0126977 -4.02846e-19
  0.013479 -3.60468e-19
 0.0143061 -1.18304e-19
 0.0151815 -3.58057e-19
 0.0161082 -7.87288e-20
  0.017089 -1.81764e-19
 0.0181271 1.1574e-19
  0.019226 -1.62033e-19
 0.0203891 -2.32042e-19
 0.0216203 -3.20758e-19
 0.0229234 -2.39116e-19
 0.0243028 -6.34139e-19
 0.0257628 -1.63325e-19
 0.0273082 -1.70107e-19
  0.028944 1.37541e-19
 0.0306754 -2.61767e-19
 0.0325081 4.63644e-20
 0.0344479 -8.01828e-20
 0.0365012 2.82423e-20
 0.0386746 2.7116e-20
  0.040975 -2.0066e-19
   0.04341  8.597e-19
 0.0459873 3.83299e-19
 0.0487154 -4.26525e-19
  0.051603 1.02294e-19
 0.0546595 -8.18708e-20
 0.0578947 1.17262e-20
 0.0613191 1.41514e-19
 0.0649437 -2.46211e-20
 0.0687803 -4.69538e-19
 0.0728413 2.98654e-20
 0.0771397 -3.49915e-20
 0.0816895 2.75127e-20
 0.0865054 -1.95987e-19
 0.0916029 -7.30449e-20
 0.0969985 -4.42636e-20
   0.10271 -2.40921e-19
  0.108755 -3.10113e-19
  0.115153 -8.73704e-20
  0.121926 -1.60316e-19
  0.129095 -3.23679e-19
  0.136683 -8.46323e-20
  0.144715 -1.14229e-19
  0.153216 -1.54349e-19
  0.162214 -1.84137e-19
  0.171739 4.23668e-20
  0.181821 -4.41151e-20
  0.192492 -1.25737e-19
  0.203788 -6.01559e-20
  0.215744 -5.21637e-20
  0.228399 1.92263e-19
  0.241794 -4.3071e-20
  0.255972 6.39181e-20
   0.27098 2.68102e-20
  0.286865 -1.71738e-21
  0.304824 -1.94126e-20
  0.324407 -4.53641e-20
  0.343989 1.6252e-19
  0.363571 7.13855e-20
  0.383154 5.42676e-20
  0.402736 3.63457e-20
  0.422319 -6.10604e-20
  0.441901 -3.34262e-20
  0.461484 7.52436e-21
  0.481066 -7.51206e-20
  0.500648 8.85067e-20
  0.520231 7.63712e-21
  0.539813 -3.28093e-20
  0.559396 1.3459e-20
  0.578978 5.85196e-20
   0.59856 -2.72207e-20
  0.618143 -3.04146e-20
  0.637725 -1.04311e-20
  0.657308 -1.67202e-20
   0.67689 -5.69645e-20
  0.696473 3.7381e-20
  0.716055 2.04806e-21
  0.735637 -3.18246e-20
   0.75522 -2.26476e-20
  0.774802 -8.21175e-21
  0.794385 -9.91205e-21
  0.813967 -3.36713e-21
  0.833549 -9.54282e-20
  0.853132 -2.64075e-20
  0.872714 2.26125e-21
  0.892297 -1.05298e-21
  0.911879 -8.72783e-22
  0.931462 3.8374e-20
  0.951044 7.96645e-21
  0.970626 1.39047e-20
  0.990209 -3.9803e-20
   1.00979 2.89783e-20
   1.02937 9.97798e-21
   1.04896 -6.18456e-21
   1.06854 8.15869e-21
   1.08812 -2.02873e-20
    1.1077 -1.1141e-20
   1.12729 -1.23564e-20
   1.14687 1.35012e-20
   1.16645 -2.0554e-20
   1.18603 -2.98726e-20
   1.20562 -6.04195e-20
    1.2252 4.92377e-20
   1.24478 -2.54048e-20
   1.26436 6.92777e-20
   1.28395 9.64384e-21
   1.30353 -1.4627e-20
   1.32311 -2.78754e-20
   1.34269 -1.79174e-20
   1.36228 9.64716e-20
   1.38186 -1.63175e-20
   1.40144 4.98579e-20
   1.42102 2.94433e-20
   1.44061 6.82099e-21
   1.46019 -5.83932e-20
   1.47977 3.8246e-20
   1.49935 1.23775e-20
   1.51894 3.18783e-21
   1.53852 -4.48713e-20
    1.5581 -1.9842e-20
   1.57768 -1.40458e-21
   1.59727 -5.66542e-20
   1.61685 2.17724e-20
   1.63643 2.01239e-20
   1.65601 4.94613e-21
    1.6756 -1.89426e-20
   1.69518 4.99796e-20
   1.71314 6.26154e-20
   1.72902 -4.70359e-20
   1.74403 4.4114e-20
   1.75821 -6.54858e-20
    1.7716 -7.83022e-20
   1.78426 -1.49208e-19
   1.79621 -6.70107e-20
   1.80751 2.2482e-20
   1.81818 -2.23628e-20
   1.82826 -1.55395e-19
   1.83779 -1.43174e-19
   1.84679 -1.35067e-19
   1.85529 -5.12963e-20
   1.86332 -2.18238e-20
   1.87091 1.52419e-19
   1.87808 -1.24792e-19
   1.88485 -9.70274e-20
   1.89125 -2.00469e-19
   1.89729 -8.28005e-20
     1.903 -2.17386e-19
    1.9084 -3.52587e-19
    1.9135 -3.21585e-19
   1.91831 3.47088e-19
   1.92286 -9.01915e-20
   1.92716 3.06983e-19
   1.93122 3.95289e-20
   1.93506 4.44587e-19
   1.93868 8.53159e-21
   1.94211 6.11674e-20
   1.94534 -1.06805e-19
    1.9484 4.50749e-19
   1.95129 -1.16894e-19
   1.95401 1.77298e-19
   1.95659 3.27686e-19
   1.95903 -4.69297e-20
   1.96133 3.0498e-19
    1.9635 -2.29036e-19
   1.96555 2.18775e-19
   1.96749 -4.75774e-19
   1.96933 -9.9417e-20
   1.97106 8.00228e-20
   1.97269 1.31264e-19
   1.97424 -5.90018e-19
    1.9757 2.64589e-20
   1.97708 7.0708e-19
   1.97838 6.90064e-19
   1.97961 -8.08613e-19
   1.98077 1.00741e-18
   1.98187 -1.60325e-19
   1.98291 -5.18102e-19
   1.98389 7.28746e-19
   1.98482 6.37342e-19
   1.98569 -7.0253e-19
   1.98652 9.70203e-19
    1.9873 -4.26546e-19
   1.98804 -1.20055e-19
   1.98874 -3.02778e-20
    1.9894 2.87096e-19
   1.99002 -4.48825e-19
   1.99061 -3.66322e-20
   1.99116 -3.64631e-19
   1.99169 2.79321e-19
   1.99218 -6.17885e-19
   1.99265 1.08422e-18
    1.9931 1.4231e-19
   1.99355 -3.71048e-19
   1.99399 1.25655e-19
   1.99444 -5.59643e-19
   1.99488 6.61237e-19
   1.99533 -2.95904e-19
   1.99577 -3.36682e-20
   1.99622 1.63933e-19
   1.99666 2.73547e-19
   1.99711 -1.3573e-19
   1.99755 -7.04468e-20
     1.998 7.33209e-20
   1.99844 7.66066e-20
   1.99889 -1.38202e-20
   1.99933 2.21183e-20
   1.99978 8.86928e-23
         2 9.06571e-23
