         0  0.0053178
 0.0002225  0.0053178
 0.0006675 0.00531221
 0.0011125 0.00529661
 0.0015575 0.00526763
 0.0020025 0.00522488
 0.0024475 0.00517063
 0.0028925 0.00510941
 0.0033375  0.0050472
 0.0037825 0.00499035
 0.0042275 0.00494464
 0.0046725 0.00491456
 0.0051175 0.00490299
 0.0055625   0.004911
 0.0060075 0.00493796
 0.0064525  0.0049815
 0.0068975 0.00503782
 0.0073476 0.00510347
0.00781612 0.00517709
0.00831203 0.00525745
0.00883694 0.00534236
0.00939255 0.00543048
0.00998065 0.00552161
 0.0106031  0.0056167
  0.011262  0.0057183
 0.0119594 0.00582969
 0.0126977 0.00595387
  0.013479 0.00609336
 0.0143061 0.00624879
 0.0151815  0.0064189
 0.0161082 0.00660122
  0.017089 0.00679102
 0.0181271 0.00698203
  0.019226 0.00717076
 0.0203891 0.00735681
 0.0216203 0.00753505
 0.0229234 0.00769551
 0.0243028 0.00783112
 0.0257628 0.00793456
 0.0273082 0.00799606
  0.028944 0.00801725
 0.0306754 0.00802512
 0.0325081 0.00804819
 0.0344479 0.00807578
 0.0365012  0.0080716
 0.0386746  0.0080216
  0.040975 0.00792387
   0.04341 0.00778346
 0.0459873 0.00765323
 0.0487154 0.00756665
  0.051603 0.00746785
 0.0546595 0.00726229
 0.0578947 0.00687041
 0.0613191 0.00628093
 0.0649437 0.00555299
 0.0687803 0.00471817
 0.0728413  0.0037401
 0.0771397  0.0026093
 0.0816895 0.00148435
 0.0865054 0.00063956
 0.0916029 0.000194563
 0.0969985 1.98786e-05
   0.10271 -5.6323e-05
  0.108755 -4.32096e-05
  0.115153 0.000186073
  0.121926 0.000767925
  0.129095 0.00181015
  0.136683  0.0033244
  0.144715 0.00481209
  0.153216 0.00551231
  0.162214 0.00538263
  0.171739  0.0051051
  0.181821 0.00506102
  0.192492 0.00502978
  0.203788 0.00466055
  0.215744 0.00386055
  0.228399 0.00343072
  0.241794 0.00335167
  0.255972 0.00233947
   0.27098 0.000404244
  0.286865     -0.001
  0.304824 -0.000589979
  0.324407 0.000518403
  0.343989  0.0006358
  0.363571 0.000459133
  0.383154 0.000509459
  0.402736 0.000312213
  0.422319 0.000102564
  0.441901 0.000235547
  0.461484 7.16705e-05
  0.481066 -0.000842612
  0.500648 -0.00196844
  0.520231 -0.00262674
  0.539813 -0.00258074
  0.559396 -0.00287264
  0.578978 -0.00428556
   0.59856 -0.00581992
  0.618143 -0.00638232
  0.637725 -0.00585318
  0.657308 -0.00515395
   0.67689 -0.00486569
  0.696473 -0.00469075
  0.716055 -0.00441548
  0.735637 -0.00404098
   0.75522 -0.00417988
  0.774802 -0.00455923
  0.794385 -0.00427197
  0.813967 -0.00314956
  0.833549 -0.00180436
  0.853132 -0.0015892
  0.872714 -0.00196027
  0.892297 -0.0017338
  0.911879 -0.00129772
  0.931462 -0.00152437
  0.951044 -0.00248778
  0.970626 -0.00286314
  0.990209 -0.00238582
   1.00979 -0.00199758
   1.02937 -0.0015241
   1.04896 -0.000802143
   1.06854 -0.000503431
   1.08812 -0.00107764
    1.1077 -0.00185783
   1.12729 -0.0019313
   1.14687 -0.00140982
   1.16645 -0.000678922
   1.18603 -0.000121299
   1.20562 7.62737e-05
    1.2252 9.40468e-05
   1.24478 0.000320949
   1.26436 0.000464134
   1.28395 8.25425e-05
   1.30353 9.81236e-06
   1.32311 0.000113574
   1.34269 -0.000154624
   1.36228 9.90356e-06
   1.38186 7.20228e-05
   1.40144 0.000156118
   1.42102 0.000890792
   1.44061 0.00102295
   1.46019 0.000187316
   1.47977 -0.00138813
   1.49935 -0.00291052
   1.51894 -0.00355506
   1.53852 -0.00383805
    1.5581 -0.00398342
   1.57768 -0.00347381
   1.59727 -0.00251468
   1.61685 -0.00117576
   1.63643 0.000312486
   1.65601 0.000940063
    1.6756 0.00201879
   1.69518 0.00438113
   1.71314 0.00683809
   1.72902 0.00839962
   1.74403 0.00808902
   1.75821 0.00658815
    1.7716 0.00518965
   1.78426 0.00428698
   1.79621 0.00423194
   1.80751 0.00467572
   1.81818 0.00488304
   1.82826 0.00474365
   1.83779 0.00449373
   1.84679 0.00415249
   1.85529  0.0035153
   1.86332 0.00287441
   1.87091 0.00276553
   1.87808 0.00323777
   1.88485 0.00393728
   1.89125 0.00443715
   1.89729 0.00466431
     1.903 0.00471258
    1.9084 0.00458709
    1.9135 0.00423341
   1.91831 0.00360226
   1.92286 0.00270976
   1.92716 0.00163971
   1.93122 0.000572909
   1.93506 -0.000265549
   1.93868 -0.000769502
   1.94211 -0.00105319
   1.94534 -0.00128255
    1.9484 -0.00152745
   1.95129 -0.00180532
   1.95401 -0.0021301
   1.95659 -0.00251132
   1.95903 -0.00291781
   1.96133 -0.00327814
    1.9635 -0.0035301
   1.96555 -0.00363829
   1.96749  -0.003598
   1.96933 -0.00342783
   1.97106 -0.00314296
   1.97269 -0.00275137
   1.97424 -0.00225052
    1.9757 -0.00163742
   1.97708 -0.000924796
   1.97838 -0.000142398
   1.97961 0.000674806
   1.98077 0.00149646
   1.98187 0.00229509
   1.98291 0.00304596
   1.98389 0.00373148
   1.98482 0.00433902
   1.98569 0.00485923
   1.98652 0.00528657
    1.9873 0.00561577
   1.98804 0.00584111
   1.98874 0.00595965
    1.9894 0.00597413
   1.99002   0.005893
   1.99061 0.00572877
   1.99116 0.00549696
   1.99169 0.00521401
   1.99218 0.00489584
   1.99265  0.0045572
    1.9931  0.0042045
   1.99355 0.00383775
   1.99399 0.00346198
   1.99444 0.00308655
   1.99488 0.00272132
   1.99533 0.00237624
   1.99577 0.00206017
   1.99622 0.00178057
   1.99666 0.00154311
   1.99711 0.00135084
   1.99755  0.0012038
     1.998 0.00109907
   1.99844 0.00103124
   1.99889 0.000992989
   1.99933 0.000975898
   1.99978 0.000971054
         2 0.000971054
