         0 1.58303e-20
 0.0002225 -2.84923e-20
 0.0006675 2.87932e-20
 0.0011125 -1.58966e-20
 0.0015575 -1.76881e-19
 0.0020025 -3.74444e-19
 0.0024475 -2.0605e-19
 0.0028925 4.23858e-19
 0.0033375  3.903e-19
 0.0037825 -1.64938e-19
 0.0042275 -2.52979e-19
 0.0046725 -1.01915e-21
 0.0051175 -1.48969e-20
 0.0055625 -3.44429e-20
 0.0060075 -4.04156e-19
 0.0064525 -7.53161e-19
 0.0068975 2.20345e-19
 0.0073476 4.56796e-20
0.00781612 -2.77426e-19
0.00831203 4.15371e-19
0.00883694 -4.96166e-19
0.00939255 -1.39127e-19
0.00998065 -9.1557e-19
 0.0106031 8.88147e-19
  0.011262 1.71122e-19
 0.0119594 -3.76947e-20
 0.0126977 5.13101e-19
  0.013479 -1.02759e-19
 0.0143061 1.53595e-19
 0.0151815 -1.34053e-18
 0.0161082 -8.88473e-19
  0.017089 -2.60759e-19
 0.0181271 -3.73664e-19
  0.019226 -1.06103e-18
 0.0203891 7.6242e-19
 0.0216203 7.89079e-19
 0.0229234 5.78749e-19
 0.0243028 -1.20949e-19
 0.0257628 2.29719e-19
 0.0273082 -8.11894e-20
  0.028944 6.21651e-19
 0.0306754 -2.85028e-19
 0.0325081 -6.33369e-19
 0.0344479 -1.25284e-18
 0.0365012 7.34534e-19
 0.0386746 3.06929e-19
  0.040975 -2.13453e-19
   0.04341 6.29833e-19
 0.0459873 -2.23551e-19
 0.0487154 1.99547e-19
  0.051603 8.60347e-20
 0.0546595 -6.38752e-19
 0.0578947 -1.94918e-19
 0.0613191 5.11172e-19
 0.0649437 1.47345e-19
 0.0687803 -1.75759e-19
 0.0728413 2.38337e-19
 0.0771397 3.94321e-19
 0.0816895 -1.64033e-19
 0.0865054 3.07038e-19
 0.0916029 1.38653e-19
 0.0969985 -7.96455e-21
   0.10271 2.27227e-20
  0.108755 2.7336e-19
  0.115153 1.01915e-21
  0.121926 3.99073e-20
  0.129095 -2.87943e-19
  0.136683 -4.89509e-19
  0.144715 -2.16824e-19
  0.153216 2.81362e-19
  0.162214 -1.77125e-19
  0.171739 -8.15607e-20
  0.181821 7.76858e-20
  0.192492 -7.74446e-21
  0.203788 -3.63689e-19
  0.215744 -2.39218e-19
  0.228399 -5.79598e-20
  0.241794 8.37226e-20
  0.255972 -9.11023e-20
   0.27098 -1.79106e-19
  0.286865 -6.67142e-20
  0.304824 2.91263e-19
  0.324407 9.59356e-20
  0.343989 2.59204e-20
  0.363571 3.44321e-20
  0.383154 1.92764e-19
  0.402736 4.90436e-19
  0.422319 5.0772e-19
  0.441901 -1.90093e-20
  0.461484 2.4885e-19
  0.481066 -3.38325e-20
  0.500648 -1.56938e-20
  0.520231 2.94616e-20
  0.539813 -1.07758e-19
  0.559396 -2.00008e-20
  0.578978 2.09942e-19
   0.59856 -2.45097e-20
  0.618143 -5.94013e-20
  0.637725 -1.17062e-19
  0.657308 -8.52809e-20
   0.67689 -3.40078e-20
  0.696473 -7.06602e-20
  0.716055 1.17146e-19
  0.735637 -2.07781e-20
   0.75522 -7.51382e-20
  0.774802 7.83694e-20
  0.794385 9.85827e-20
  0.813967 1.46604e-19
  0.833549 5.87459e-20
  0.853132 -5.12481e-20
  0.872714 -3.36059e-21
  0.892297 -3.53815e-20
  0.911879 -3.06149e-20
  0.931462 1.99401e-20
  0.951044 9.22289e-20
  0.970626 -8.76847e-20
  0.990209 9.18428e-20
   1.00979 2.92328e-22
   1.02937 6.56122e-21
   1.04896 -6.03867e-20
   1.06854 2.75688e-20
   1.08812 -5.50392e-20
    1.1077 8.06228e-20
   1.12729 2.1603e-20
   1.14687 2.59634e-20
   1.16645 -1.16348e-20
   1.18603 1.91328e-19
   1.20562 -1.56082e-20
    1.2252 -1.92689e-19
   1.24478 1.1968e-19
   1.26436 -3.75251e-20
   1.28395 -2.90563e-20
   1.30353 -1.88331e-19
   1.32311 -7.66129e-20
   1.34269 7.34482e-20
   1.36228 -6.75648e-20
   1.38186 1.16424e-20
   1.40144 9.16471e-20
   1.42102 9.94563e-20
   1.44061 8.59401e-20
   1.46019 2.20787e-19
   1.47977 -7.52271e-20
   1.49935 4.93251e-19
   1.51894 1.0822e-19
   1.53852 7.97059e-20
    1.5581 -7.38157e-20
   1.57768 -3.27407e-20
   1.59727 -3.59955e-21
   1.61685 -5.12429e-20
   1.63643 -1.09902e-19
   1.65601 2.74601e-19
    1.6756 8.57533e-20
   1.69518 -3.9761e-19
   1.71314 1.85851e-19
   1.72902 5.39369e-20
   1.74403 -3.87479e-19
   1.75821 -2.02627e-19
    1.7716 3.36671e-19
   1.78426 -3.36353e-19
   1.79621 -4.0912e-19
   1.80751 2.23136e-19
   1.81818 3.51372e-19
   1.82826 -6.6596e-20
   1.83779 -7.22339e-20
   1.84679 -1.06881e-20
   1.85529 -2.05594e-19
   1.86332 -2.70852e-19
   1.87091 1.67872e-20
   1.87808 -5.05086e-19
   1.88485 1.68322e-19
   1.89125 1.66375e-19
   1.89729 -3.14974e-19
     1.903 1.70263e-20
    1.9084 2.63158e-19
    1.9135 -2.48417e-19
   1.91831 3.34856e-20
   1.92286 4.94742e-19
   1.92716 6.49177e-20
   1.93122 -3.64609e-19
   1.93506 -3.84098e-19
   1.93868 2.23981e-19
   1.94211 3.23557e-19
   1.94534 8.57073e-20
    1.9484 -2.80606e-19
   1.95129 -7.43211e-19
   1.95401 -1.99082e-19
   1.95659 -1.92876e-19
   1.95903 2.76964e-19
   1.96133 -2.88159e-19
    1.9635 -9.55052e-20
   1.96555 2.58992e-19
   1.96749 2.9249e-19
   1.96933 7.47608e-19
   1.97106 -1.05076e-19
   1.97269 -7.74649e-21
   1.97424 8.19123e-19
    1.9757 -3.46533e-19
   1.97708 1.52862e-19
   1.97838 -4.42164e-19
   1.97961 1.67095e-18
   1.98077 -7.51959e-19
   1.98187 9.74572e-19
   1.98291 1.26862e-18
   1.98389 3.51884e-19
   1.98482 1.57234e-18
   1.98569 -1.57761e-18
   1.98652 -3.70932e-19
    1.9873 7.31691e-19
   1.98804 7.52783e-19
   1.98874 8.25117e-19
    1.9894 -1.21641e-18
   1.99002 5.3408e-19
   1.99061 8.82067e-19
   1.99116 1.47016e-18
   1.99169 -2.98875e-19
   1.99218 2.33917e-21
   1.99265 2.08702e-18
    1.9931 -2.42515e-18
   1.99355 1.26765e-18
   1.99399 -4.39156e-20
   1.99444 6.48333e-19
   1.99488 -1.12446e-18
   1.99533 -1.68766e-18
   1.99577 2.25212e-18
   1.99622 7.09236e-19
   1.99666 -1.63447e-18
   1.99711 -1.0751e-18
   1.99755   1.98e-18
     1.998 5.66405e-19
   1.99844 -7.87389e-19
   1.99889 1.80053e-20
   1.99933 -1.7884e-19
   1.99978 -1.54595e-19
         2 -1.43958e-19
