         0 7.38634e-20
 0.0002225 4.35424e-19
 0.0006675 3.26878e-18
 0.0011125 3.66818e-18
 0.0015575 1.21226e-18
 0.0020025 -6.87679e-19
 0.0024475 -1.04455e-18
 0.0028925 7.09609e-18
 0.0033375 8.69492e-18
 0.0037825 5.03902e-18
 0.0042275 7.87287e-18
 0.0046725 1.01246e-17
 0.0051175 1.57971e-18
 0.0055625 1.24345e-18
 0.0060075 9.57921e-18
 0.0064525 7.8143e-18
 0.0068975 1.21066e-17
 0.0073476 7.17933e-18
0.00781612 5.15012e-18
0.00831203 2.63227e-18
0.00883694 -2.98206e-18
0.00939255 -4.03635e-19
0.00998065 2.35693e-18
 0.0106031 2.40162e-18
  0.011262 5.09648e-18
 0.0119594 1.01449e-17
 0.0126977 9.56242e-18
  0.013479 -5.64569e-18
 0.0143061 -6.04072e-18
 0.0151815 4.20414e-18
 0.0161082 8.22311e-18
  0.017089 6.84591e-18
 0.0181271 1.18412e-18
  0.019226 2.37692e-19
 0.0203891 5.76069e-18
 0.0216203 5.96346e-19
 0.0229234 -4.74184e-18
 0.0243028 1.41805e-18
 0.0257628 4.14646e-18
 0.0273082 -2.17642e-18
  0.028944 -1.09304e-19
 0.0306754 3.00094e-19
 0.0325081 -3.19178e-18
 0.0344479 1.20037e-18
 0.0365012 -8.87137e-18
 0.0386746 1.58122e-18
  0.040975 -5.58621e-19
   0.04341 6.28731e-18
 0.0459873 -6.51388e-18
 0.0487154 5.22951e-18
  0.051603 -4.35577e-18
 0.0546595 5.17765e-18
 0.0578947 -1.04399e-18
 0.0613191 5.49264e-18
 0.0649437 3.82588e-18
 0.0687803 -4.63879e-18
 0.0728413 -3.19694e-18
 0.0771397 -7.16502e-18
 0.0816895 2.17264e-18
 0.0865054 -9.91828e-19
 0.0916029 2.95883e-19
 0.0969985 -1.87786e-18
   0.10271 1.15606e-17
  0.108755 -1.2532e-18
  0.115153 -1.69462e-18
  0.121926 -1.85107e-18
  0.129095 2.96747e-18
  0.136683 7.40727e-19
  0.144715 -3.33381e-18
  0.153216 -3.3357e-19
  0.162214 -5.6599e-18
  0.171739 -4.82345e-18
  0.181821 -4.29541e-18
  0.192492 -3.32612e-18
  0.203788 4.02466e-18
  0.215744 -9.30835e-19
  0.228399 7.48446e-19
  0.241794 1.30873e-18
  0.255972 3.51576e-18
   0.27098 -4.3272e-18
  0.286865 -5.31463e-19
  0.304824 -2.30161e-18
  0.324407 -3.44847e-18
  0.343989 -3.45279e-19
  0.363571 -9.12465e-20
  0.383154 4.63865e-20
  0.402736 -1.45915e-18
  0.422319 2.0349e-18
  0.441901 2.2783e-19
  0.461484 7.24876e-19
  0.481066 1.55291e-18
  0.500648 -9.05725e-19
  0.520231 1.54786e-18
  0.539813 -4.22129e-18
  0.559396 -3.51881e-19
  0.578978 -2.12268e-18
   0.59856 -1.17766e-19
  0.618143 7.40089e-19
  0.637725 -3.59278e-18
  0.657308 -1.96411e-18
   0.67689 9.35857e-19
  0.696473 1.61717e-19
  0.716055 -2.49195e-18
  0.735637 -2.36471e-18
   0.75522 6.68658e-18
  0.774802  2.926e-19
  0.794385 3.57553e-18
  0.813967 -5.33934e-18
  0.833549 -7.25104e-20
  0.853132 -4.93593e-18
  0.872714 -1.30151e-18
  0.892297 5.42881e-18
  0.911879 -2.56656e-18
  0.931462 -6.71793e-18
  0.951044 -3.01823e-18
  0.970626 7.9169e-18
  0.990209 -7.28936e-18
   1.00979 2.13704e-18
   1.02937 -5.45199e-18
   1.04896 -3.21325e-18
   1.06854 -9.46939e-18
   1.08812 -4.19817e-19
    1.1077 4.27342e-19
   1.12729 -1.31209e-18
   1.14687 -5.74959e-19
   1.16645 8.48106e-19
   1.18603 1.15795e-18
   1.20562 -3.96124e-20
    1.2252 2.1202e-18
   1.24478 -6.44016e-21
   1.26436 -7.8599e-19
   1.28395 4.00088e-19
   1.30353 -1.69535e-18
   1.32311 1.94431e-18
   1.34269 1.05485e-18
   1.36228 1.78704e-18
   1.38186  2.173e-19
   1.40144 -2.49923e-18
   1.42102 6.10379e-18
   1.44061 -4.01952e-18
   1.46019 7.4018e-18
   1.47977 -4.76082e-19
   1.49935 1.00085e-19
   1.51894 -7.35672e-18
   1.53852 1.04812e-18
    1.5581 -5.44941e-18
   1.57768 -5.30356e-18
   1.59727 3.88566e-18
   1.61685 -6.37719e-19
   1.63643 -4.37171e-18
   1.65601 -5.88623e-18
    1.6756 5.26227e-18
   1.69518 4.64533e-18
   1.71314 -1.87635e-18
   1.72902 3.93481e-18
   1.74403 -1.92136e-19
   1.75821 6.82336e-19
    1.7716 4.4037e-18
   1.78426 2.89348e-18
   1.79621 -1.42279e-18
   1.80751 1.47493e-18
   1.81818 1.08779e-18
   1.82826 -4.50074e-19
   1.83779 1.66386e-19
   1.84679 1.66377e-18
   1.85529 3.74136e-18
   1.86332 -1.91011e-18
   1.87091 -6.18175e-18
   1.87808 1.73342e-18
   1.88485 -6.50088e-19
   1.89125 1.89361e-18
   1.89729 8.42348e-18
     1.903 1.45832e-17
    1.9084 7.49617e-19
    1.9135 5.88895e-18
   1.91831 5.61343e-18
   1.92286 -1.27929e-18
   1.92716 1.07505e-17
   1.93122 2.39288e-19
   1.93506 -4.9156e-18
   1.93868 5.07558e-18
   1.94211 8.23177e-18
   1.94534 -1.53441e-17
    1.9484 -2.84784e-18
   1.95129 -1.34847e-17
   1.95401 1.85077e-17
   1.95659 -2.67603e-18
   1.95903 9.9288e-18
   1.96133 1.26949e-17
    1.9635 1.12703e-17
   1.96555 1.6917e-18
   1.96749 8.18227e-18
   1.96933 2.37969e-17
   1.97106 -1.47298e-17
   1.97269 1.73982e-17
   1.97424 1.71456e-17
    1.9757 1.8483e-17
   1.97708 -1.92975e-17
   1.97838 1.66666e-17
   1.97961 -1.29994e-17
   1.98077 3.31669e-18
   1.98187 2.04778e-17
   1.98291 -1.70507e-17
   1.98389 -3.24694e-17
   1.98482 6.14234e-17
   1.98569 -3.18655e-17
   1.98652 3.83997e-17
    1.9873 2.33605e-18
   1.98804 -5.628e-18
   1.98874 -8.90717e-17
    1.9894 7.68574e-17
   1.99002 -1.47018e-17
   1.99061 3.93215e-17
   1.99116 -4.05855e-17
   1.99169 1.67581e-17
   1.99218 1.32886e-17
   1.99265 -1.14728e-17
    1.9931 4.26801e-17
   1.99355 -6.45995e-17
   1.99399 4.61186e-17
   1.99444 1.48773e-17
   1.99488 -5.81728e-17
   1.99533 3.17679e-17
   1.99577 -4.246e-17
   1.99622 5.98247e-17
   1.99666 -1.63721e-17
   1.99711 1.84603e-17
   1.99755 2.09803e-18
     1.998 6.18458e-18
   1.99844 1.61774e-17
   1.99889 7.50356e-18
   1.99933 -1.97576e-18
   1.99978 -6.17501e-19
         2 -1.0667e-18
