         0 7.71591e-20
 0.0002225 8.89837e-20
 0.0006675 3.05134e-19
 0.0011125 -9.66516e-19
 0.0015575 8.93727e-19
 0.0020025 -9.66375e-19
 0.0024475 -2.12979e-18
 0.0028925 2.98577e-18
 0.0033375 -1.74364e-18
 0.0037825 3.46485e-19
 0.0042275 -2.78762e-18
 0.0046725 2.97211e-18
 0.0051175 -5.02793e-18
 0.0055625 6.69083e-20
 0.0060075 -7.12607e-19
 0.0064525 7.58039e-19
 0.0068975 -1.62397e-18
 0.0073476 -1.10682e-18
0.00781612 -7.00013e-19
0.00831203 1.87329e-18
0.00883694 2.12018e-18
0.00939255 -9.5356e-19
0.00998065 3.22034e-18
 0.0106031 -1.35014e-17
  0.011262 -3.36854e-18
 0.0119594 -9.94252e-18
 0.0126977 -1.3348e-18
  0.013479 7.74204e-18
 0.0143061 8.18353e-18
 0.0151815 -3.71465e-17
 0.0161082 -3.86956e-19
  0.017089 2.81252e-18
 0.0181271 -9.19113e-18
  0.019226 1.73151e-18
 0.0203891 7.24841e-18
 0.0216203 -5.82013e-18
 0.0229234 6.0024e-18
 0.0243028 6.18988e-18
 0.0257628 -1.15286e-18
 0.0273082 -1.13266e-17
  0.028944 4.13725e-18
 0.0306754 3.82596e-18
 0.0325081 3.59305e-20
 0.0344479 1.91149e-19
 0.0365012 4.08201e-18
 0.0386746 4.73034e-18
  0.040975 2.85839e-18
   0.04341 -4.60357e-18
 0.0459873 6.99727e-18
 0.0487154 2.15095e-18
  0.051603 -5.3256e-18
 0.0546595 3.40878e-17
 0.0578947 4.83386e-18
 0.0613191 -1.37595e-18
 0.0649437 -3.3219e-18
 0.0687803 -9.95807e-18
 0.0728413 3.04666e-18
 0.0771397 2.00309e-18
 0.0816895 -2.92101e-18
 0.0865054 -5.30753e-18
 0.0916029 5.08441e-18
 0.0969985 1.46427e-17
   0.10271 1.27482e-17
  0.108755 -1.04462e-17
  0.115153 -1.34534e-18
  0.121926 -7.53196e-18
  0.129095 -4.20666e-18
  0.136683 -2.50086e-17
  0.144715 -1.66532e-17
  0.153216 9.77328e-18
  0.162214 5.55182e-18
  0.171739 1.66439e-18
  0.181821 -4.15571e-18
  0.192492 5.6019e-17
  0.203788 -3.23449e-18
  0.215744 -9.4196e-20
  0.228399 -3.26296e-18
  0.241794 9.00184e-18
  0.255972 -7.39752e-18
   0.27098 1.1665e-17
  0.286865 -3.92568e-18
  0.304824 -9.50279e-18
  0.324407 1.15542e-17
  0.343989 -6.7368e-18
  0.363571 -4.23743e-17
  0.383154 -8.97425e-18
  0.402736 9.16657e-18
  0.422319 1.73716e-17
  0.441901 -1.50006e-17
  0.461484 -1.39416e-17
  0.481066 -3.17314e-18
  0.500648 7.78172e-18
  0.520231 1.41126e-17
  0.539813 -3.41688e-19
  0.559396 -1.42452e-17
  0.578978 -9.08806e-18
   0.59856 1.37977e-17
  0.618143 6.13654e-18
  0.637725 -6.87807e-18
  0.657308 -2.54371e-17
   0.67689 -1.77728e-17
  0.696473 -1.40099e-17
  0.716055 -2.41745e-18
  0.735637 1.04952e-17
   0.75522 1.35813e-17
  0.774802 4.17683e-17
  0.794385 8.24346e-18
  0.813967 6.06573e-18
  0.833549 -2.46851e-17
  0.853132 -2.84992e-17
  0.872714 -2.45167e-17
  0.892297 -2.85706e-18
  0.911879 5.49357e-18
  0.931462 8.50279e-18
  0.951044 2.23916e-17
  0.970626 1.23182e-17
  0.990209 1.71526e-17
   1.00979 3.77935e-17
   1.02937 -1.40531e-17
   1.04896 -1.31151e-17
   1.06854 3.53816e-18
   1.08812 -2.00089e-17
    1.1077 -1.02668e-17
   1.12729 -1.58663e-18
   1.14687 -9.5383e-18
   1.16645 -6.8599e-18
   1.18603 -1.57752e-17
   1.20562 -5.23535e-18
    1.2252 -1.1152e-17
   1.24478 -4.84291e-18
   1.26436 -1.03101e-17
   1.28395 6.67374e-18
   1.30353 -1.53836e-17
   1.32311 1.79495e-18
   1.34269 -1.25344e-17
   1.36228 -4.98737e-18
   1.38186 7.50573e-18
   1.40144 -1.18129e-17
   1.42102 1.20535e-17
   1.44061 3.1056e-18
   1.46019 -5.46655e-18
   1.47977 3.49007e-18
   1.49935 -1.34649e-17
   1.51894 6.35577e-19
   1.53852 -2.55018e-18
    1.5581 1.92707e-19
   1.57768 1.01105e-17
   1.59727 -6.01667e-18
   1.61685 -1.21705e-17
   1.63643 1.15697e-17
   1.65601 -5.35588e-18
    1.6756 3.81083e-18
   1.69518 1.14969e-17
   1.71314 8.63767e-18
   1.72902 5.79453e-18
   1.74403 -8.77573e-19
   1.75821 8.1463e-18
    1.7716 -1.21703e-18
   1.78426 -1.39586e-17
   1.79621 -1.01025e-17
   1.80751 -9.44382e-18
   1.81818 4.06184e-18
   1.82826 -8.21179e-18
   1.83779 -4.69523e-18
   1.84679 -7.25818e-18
   1.85529 -7.2594e-18
   1.86332 2.06449e-17
   1.87091 -3.45203e-18
   1.87808 2.71598e-17
   1.88485 5.07634e-18
   1.89125 8.08514e-18
   1.89729 -3.61377e-17
     1.903 1.25711e-17
    1.9084 9.09165e-18
    1.9135 1.15961e-18
   1.91831 -7.23601e-19
   1.92286 2.31672e-18
   1.92716 4.21644e-19
   1.93122 -4.27909e-19
   1.93506 -3.95709e-18
   1.93868 5.14628e-18
   1.94211 -1.94048e-18
   1.94534 3.40412e-17
    1.9484 -1.62978e-18
   1.95129 6.54602e-18
   1.95401 -8.56683e-18
   1.95659 -7.31767e-19
   1.95903 1.06172e-18
   1.96133 -1.69666e-18
    1.9635 2.57177e-18
   1.96555 -6.38855e-19
   1.96749 -8.29213e-18
   1.96933 5.43491e-18
   1.97106 -6.31335e-19
   1.97269 7.72436e-18
   1.97424 -2.44995e-18
    1.9757 -2.07894e-18
   1.97708 9.65871e-18
   1.97838 6.56803e-18
   1.97961 -3.4547e-18
   1.98077 4.85414e-18
   1.98187 1.16296e-18
   1.98291 9.58919e-18
   1.98389 4.4794e-19
   1.98482 8.05658e-19
   1.98569 3.29771e-19
   1.98652 -5.78836e-18
    1.9873 4.89489e-18
   1.98804 7.98287e-18
   1.98874 -8.03239e-18
    1.9894 -3.07928e-18
   1.99002 3.22843e-18
   1.99061 1.35732e-17
   1.99116 -5.1101e-18
   1.99169 -1.33041e-18
   1.99218 -8.12689e-18
   1.99265 4.44223e-18
    1.9931 2.88418e-18
   1.99355 5.5273e-18
   1.99399 -1.96233e-18
   1.99444 -9.45213e-18
   1.99488 9.09695e-18
   1.99533 -1.09827e-17
   1.99577 7.46214e-18
   1.99622 -4.79504e-18
   1.99666 8.88682e-18
   1.99711 -3.42207e-18
   1.99755 -4.11449e-18
     1.998 1.75807e-18
   1.99844 1.16712e-19
   1.99889 -2.31122e-18
   1.99933 7.97152e-19
   1.99978 -2.2578e-20
         2 9.18639e-21
