         0 0.000150566
 0.0002225 0.000150566
 0.0006675 0.000145321
 0.0011125 8.55786e-05
 0.0015575 1.32872e-05
 0.0020025 -2.25132e-05
 0.0024475 -3.91234e-05
 0.0028925 -4.88315e-05
 0.0033375 -5.36631e-05
 0.0037825 -5.44378e-05
 0.0042275 -5.24415e-05
 0.0046725 -4.87848e-05
 0.0051175 -4.43015e-05
 0.0055625 -3.86505e-05
 0.0060075 -2.73755e-05
 0.0064525 -4.48641e-06
 0.0068975 1.48749e-05
 0.0073476 3.72481e-06
0.00781612 -2.6625e-05
0.00831203 -4.7902e-05
0.00883694 -5.68822e-05
0.00939255 -6.25592e-05
0.00998065 -6.9906e-05
 0.0106031 -7.81439e-05
  0.011262 -8.58002e-05
 0.0119594 -9.24478e-05
 0.0126977 -9.79525e-05
  0.013479 -0.000101651
 0.0143061 -0.000102971
 0.0151815 -0.000101158
 0.0161082 -9.6174e-05
  0.017089 -8.86396e-05
 0.0181271 -7.798e-05
  0.019226 -6.46781e-05
 0.0203891 -5.02923e-05
 0.0216203 -3.50199e-05
 0.0229234 -1.90637e-05
 0.0243028 -3.64519e-06
 0.0257628 9.45499e-06
 0.0273082 1.9858e-05
  0.028944 2.96824e-05
 0.0306754 3.88281e-05
 0.0325081 4.57048e-05
 0.0344479 5.20587e-05
 0.0365012 5.93385e-05
 0.0386746 6.66418e-05
  0.040975 7.0179e-05
   0.04341 6.37671e-05
 0.0459873 4.9544e-05
 0.0487154 3.43923e-05
  0.051603 1.87475e-05
 0.0546595 1.4095e-06
 0.0578947 -1.72377e-05
 0.0613191 -3.31008e-05
 0.0649437 -4.67944e-05
 0.0687803 -6.23281e-05
 0.0728413 -6.94567e-05
 0.0771397 -6.90697e-05
 0.0816895 -6.68353e-05
 0.0865054 -6.15452e-05
 0.0916029 -5.59403e-05
 0.0969985 -5.74472e-05
   0.10271 -6.4849e-05
  0.108755 -5.70965e-05
  0.115153 -3.82527e-05
  0.121926 -3.43022e-05
  0.129095 -2.84131e-05
  0.136683 -5.01882e-06
  0.144715 -7.76755e-06
  0.153216 -2.21212e-05
  0.162214 -2.16541e-05
  0.171739 4.04267e-06
  0.181821 -2.35285e-05
  0.192492 5.22475e-05
  0.203788 1.61532e-05
  0.215744 4.7224e-05
  0.228399 -0.000111549
  0.241794 0.000177244
  0.255972 -0.000189447
   0.27098 2.29154e-05
  0.286865 0.000516083
  0.304824 -0.000563294
  0.324407 0.000132084
  0.343989 0.000157363
  0.363571 -8.5758e-05
  0.383154 9.32419e-05
  0.402736 -8.71778e-05
  0.422319 8.62862e-05
  0.441901 -4.14295e-05
  0.461484 1.99066e-05
  0.481066 -8.8823e-06
  0.500648 1.06395e-05
  0.520231 1.69219e-05
  0.539813 -6.78779e-06
  0.559396 1.56455e-05
  0.578978 -1.10057e-05
   0.59856 5.65912e-06
  0.618143 2.04636e-05
  0.637725 -1.76083e-05
  0.657308 -1.02109e-05
   0.67689 4.65703e-06
  0.696473 8.55321e-06
  0.716055 3.17311e-06
  0.735637 1.53439e-05
   0.75522 7.56287e-06
  0.774802 -1.57017e-06
  0.794385 -1.54404e-05
  0.813967 1.12634e-05
  0.833549 6.06474e-06
  0.853132 7.18215e-06
  0.872714 1.26976e-05
  0.892297 -9.44043e-06
  0.911879 -2.30608e-06
  0.931462 1.00772e-05
  0.951044 4.83594e-06
  0.970626 -2.37452e-06
  0.990209 1.16531e-05
   1.00979 1.21286e-05
   1.02937 -2.40213e-06
   1.04896 1.28948e-05
   1.06854 -3.61163e-07
   1.08812 -1.10157e-05
    1.1077 1.41238e-05
   1.12729 3.58814e-06
   1.14687 7.41816e-06
   1.16645 -8.44941e-07
   1.18603 1.47625e-05
   1.20562 6.88639e-06
    1.2252 -4.61508e-06
   1.24478 1.68418e-05
   1.26436 1.61347e-06
   1.28395 -2.17711e-05
   1.30353 8.8708e-06
   1.32311 -1.36854e-06
   1.34269 1.26068e-05
   1.36228 -3.97666e-06
   1.38186 5.04379e-06
   1.40144 4.64489e-06
   1.42102 1.41479e-05
   1.44061 -5.2276e-06
   1.46019 -2.10757e-05
   1.47977 3.08468e-05
   1.49935 -1.90013e-05
   1.51894 2.09838e-05
   1.53852 4.06925e-05
    1.5581 -6.31015e-05
   1.57768 8.11276e-05
   1.59727 -7.24202e-05
   1.61685 8.32489e-05
   1.63643 -9.16839e-05
   1.65601 0.000193668
    1.6756 7.34749e-05
   1.69518 -0.00055015
   1.71314 0.000575575
   1.72902 -1.05114e-05
   1.74403 -0.000211648
   1.75821 0.000179072
    1.7716  -9.04e-05
   1.78426 5.25339e-05
   1.79621 -1.73675e-05
   1.80751 2.65713e-05
   1.81818 2.48005e-06
   1.82826 1.26572e-05
   1.83779 -1.47636e-05
   1.84679 -4.88164e-06
   1.85529 -8.2339e-07
   1.86332 -1.55299e-05
   1.87091 -3.8277e-05
   1.87808 -5.78719e-05
   1.88485 -5.5158e-05
   1.89125 -4.3037e-05
   1.89729 -4.52112e-05
     1.903 -4.88238e-05
    1.9084 -5.21989e-05
    1.9135 -6.31838e-05
   1.91831 -8.08516e-05
   1.92286 -7.84212e-05
   1.92716 -5.99634e-05
   1.93122 -4.99269e-05
   1.93506 -4.58348e-05
   1.93868 -3.64762e-05
   1.94211 -2.29192e-05
   1.94534 -6.14906e-06
    1.9484 1.41083e-05
   1.95129 3.61559e-05
   1.95401 5.66658e-05
   1.95659 6.95512e-05
   1.95903 7.21468e-05
   1.96133 6.88132e-05
    1.9635 6.32837e-05
   1.96555 5.62705e-05
   1.96749 4.74882e-05
   1.96933 3.74073e-05
   1.97106 2.76041e-05
   1.97269 1.8176e-05
   1.97424 8.00377e-06
    1.9757 -4.204e-06
   1.97708 -1.86486e-05
   1.97838 -3.43496e-05
   1.97961 -5.05927e-05
   1.98077 -6.59796e-05
   1.98187 -7.90851e-05
   1.98291 -8.97153e-05
   1.98389 -9.76302e-05
   1.98482 -0.000102316
   1.98569 -0.000103681
   1.98652 -0.000102071
    1.9873 -9.80933e-05
   1.98804 -9.25389e-05
   1.98874 -8.58309e-05
    1.9894 -7.8125e-05
   1.99002 -7.00387e-05
   1.99061 -6.27269e-05
   1.99116 -5.69795e-05
   1.99169 -4.80252e-05
   1.99218 -2.66796e-05
   1.99265 3.83295e-06
    1.9931 1.49665e-05
   1.99355 -4.49003e-06
   1.99399 -2.74685e-05
   1.99444 -3.89273e-05
   1.99488 -4.46199e-05
   1.99533 -4.90098e-05
   1.99577 -5.26591e-05
   1.99622 -5.46942e-05
   1.99666 -5.39499e-05
   1.99711 -4.90953e-05
   1.99755 -3.92946e-05
     1.998 -2.25806e-05
   1.99844 1.33877e-05
   1.99889 8.60103e-05
   1.99933 0.000146003
   1.99978 0.000151244
         2 0.000151244
