         0 -5.23431e-19
 0.0002225 6.96425e-19
 0.0006675 2.09654e-18
 0.0011125 -2.56771e-18
 0.0015575 8.10471e-18
 0.0020025 -1.00745e-17
 0.0024475 -1.73961e-17
 0.0028925 6.46228e-18
 0.0033375 -1.31812e-17
 0.0037825 1.10761e-17
 0.0042275 -2.08854e-18
 0.0046725 -3.94746e-17
 0.0051175 -2.75306e-17
 0.0055625 1.01782e-17
 0.0060075 3.5035e-17
 0.0064525 -4.26851e-17
 0.0068975 2.13611e-17
 0.0073476 1.67925e-17
0.00781612 -3.85299e-17
0.00831203 1.33242e-17
0.00883694 1.19828e-17
0.00939255 -3.00011e-17
0.00998065 -1.02412e-16
 0.0106031 -7.8505e-17
  0.011262 -2.9232e-17
 0.0119594 -4.38767e-17
 0.0126977 3.46684e-18
  0.013479 -5.15086e-17
 0.0143061 3.18027e-17
 0.0151815 -4.05877e-17
 0.0161082 1.88513e-18
  0.017089 -6.68513e-17
 0.0181271 -3.25761e-17
  0.019226 -3.78452e-17
 0.0203891 -2.28399e-17
 0.0216203 -4.75627e-17
 0.0229234 3.33956e-17
 0.0243028 -4.5757e-17
 0.0257628 -4.4501e-17
 0.0273082 4.30899e-17
  0.028944 -5.84701e-17
 0.0306754 1.37128e-17
 0.0325081 -8.24157e-18
 0.0344479 4.41453e-17
 0.0365012 3.9178e-17
 0.0386746 3.59966e-17
  0.040975 3.55521e-18
   0.04341 1.96137e-17
 0.0459873 2.99511e-17
 0.0487154 1.85591e-16
  0.051603 1.29082e-17
 0.0546595 4.18013e-17
 0.0578947 -5.87835e-18
 0.0613191 4.0013e-17
 0.0649437 6.76309e-17
 0.0687803 -6.79706e-18
 0.0728413 2.20961e-17
 0.0771397 -3.61409e-17
 0.0816895 3.17377e-18
 0.0865054 1.79856e-17
 0.0916029 -2.9057e-18
 0.0969985 7.04007e-17
   0.10271 1.34788e-18
  0.108755 7.92436e-17
  0.115153 8.7006e-17
  0.121926 6.69587e-17
  0.129095 1.33334e-17
  0.136683 1.29026e-17
  0.144715 3.03724e-17
  0.153216 3.99121e-17
  0.162214 1.54842e-17
  0.171739 9.18585e-18
  0.181821 4.68502e-17
  0.192492 8.50977e-17
  0.203788 3.08568e-17
  0.215744 2.82775e-17
  0.228399 1.32415e-18
  0.241794 2.55331e-17
  0.255972 4.96583e-17
   0.27098 -2.28697e-17
  0.286865 5.99548e-18
  0.304824 -4.62685e-19
  0.324407 -2.30695e-17
  0.343989 6.26588e-17
  0.363571 2.65035e-17
  0.383154 -7.95079e-18
  0.402736 1.64445e-17
  0.422319 -5.0932e-17
  0.441901 3.44114e-17
  0.461484 -1.96109e-17
  0.481066 7.56668e-17
  0.500648 7.03806e-17
  0.520231 -1.57029e-17
  0.539813 4.29921e-17
  0.559396 3.28201e-17
  0.578978 2.43917e-17
   0.59856 -4.73765e-17
  0.618143 1.11126e-17
  0.637725 4.56741e-17
  0.657308 7.16089e-17
   0.67689 -2.23409e-17
  0.696473 5.74504e-17
  0.716055 -1.88472e-17
  0.735637 -3.79322e-17
   0.75522 -5.14811e-17
  0.774802 -1.52868e-16
  0.794385 7.98406e-17
  0.813967 -1.23471e-17
  0.833549 9.8737e-17
  0.853132 -1.8531e-17
  0.872714 6.41564e-17
  0.892297 2.31265e-17
  0.911879 1.09293e-17
  0.931462 -3.87263e-18
  0.951044 -4.56712e-17
  0.970626 -4.41166e-17
  0.990209 -1.97564e-17
   1.00979 2.59518e-18
   1.02937 3.77555e-17
   1.04896 3.42962e-17
   1.06854 4.14435e-18
   1.08812 3.28992e-17
    1.1077 1.70807e-18
   1.12729 2.41647e-17
   1.14687 1.15969e-17
   1.16645 6.17881e-17
   1.18603 5.90487e-17
   1.20562 1.24712e-17
    1.2252 1.92327e-17
   1.24478 1.84509e-17
   1.26436 1.90494e-17
   1.28395 -1.05986e-17
   1.30353 -2.52655e-17
   1.32311 -1.83993e-19
   1.34269 -1.39823e-17
   1.36228 4.0624e-17
   1.38186 6.56152e-18
   1.40144 3.94592e-17
   1.42102 -4.43479e-17
   1.44061 -7.2721e-18
   1.46019 -3.26714e-17
   1.47977 -2.08637e-17
   1.49935 -1.5129e-17
   1.51894 -5.81365e-18
   1.53852 1.88421e-17
    1.5581 3.67236e-17
   1.57768 -2.2468e-17
   1.59727 2.33563e-18
   1.61685 9.24712e-18
   1.63643 2.00886e-17
   1.65601 -1.8993e-17
    1.6756 4.77188e-18
   1.69518 1.38912e-17
   1.71314 -4.60294e-17
   1.72902 -3.63394e-17
   1.74403 -7.12833e-18
   1.75821 -1.88543e-17
    1.7716 -4.53011e-17
   1.78426 -6.90964e-17
   1.79621 -3.08362e-17
   1.80751 -1.76694e-17
   1.81818 -4.8368e-17
   1.82826 -1.18197e-17
   1.83779 1.08797e-17
   1.84679 -2.20492e-17
   1.85529 7.54021e-18
   1.86332 -2.68972e-17
   1.87091 6.50239e-18
   1.87808 1.85106e-17
   1.88485 -1.96776e-17
   1.89125 8.21815e-18
   1.89729 2.80074e-17
     1.903 2.74945e-17
    1.9084 2.34271e-17
    1.9135 8.72427e-18
   1.91831 2.7179e-18
   1.92286 1.86718e-17
   1.92716 1.91094e-17
   1.93122 4.82728e-17
   1.93506 1.47945e-17
   1.93868 3.51404e-17
   1.94211 1.14467e-17
   1.94534 2.3145e-17
    1.9484 2.9623e-17
   1.95129 2.02333e-17
   1.95401 2.80809e-17
   1.95659 -2.61104e-17
   1.95903 -1.88392e-17
   1.96133 -1.86606e-17
    1.9635 -2.5952e-17
   1.96555 2.5368e-17
   1.96749 5.76277e-17
   1.96933 -5.34102e-17
   1.97106 -1.0493e-18
   1.97269 9.31713e-18
   1.97424 2.91139e-17
    1.9757 -1.11899e-16
   1.97708 3.51173e-17
   1.97838 6.99434e-17
   1.97961 -1.77484e-17
   1.98077 -8.69638e-17
   1.98187 -2.23319e-16
   1.98291 6.65779e-17
   1.98389 -3.17039e-17
   1.98482 -3.97171e-17
   1.98569 -3.64224e-17
   1.98652 -8.30735e-17
    1.9873 2.58132e-17
   1.98804 -1.84472e-17
   1.98874 -1.33035e-16
    1.9894 -9.91095e-17
   1.99002 -7.04774e-17
   1.99061 3.13157e-16
   1.99116 -3.55936e-16
   1.99169 -2.77161e-16
   1.99218 3.02719e-16
   1.99265 1.04293e-16
    1.9931 2.17266e-17
   1.99355 2.92053e-16
   1.99399 -3.41701e-16
   1.99444 1.31703e-16
   1.99488 -1.50626e-16
   1.99533 9.64218e-17
   1.99577 1.01382e-16
   1.99622 -2.44114e-16
   1.99666 -1.4657e-16
   1.99711 2.10038e-16
   1.99755 -3.71195e-17
     1.998 -2.97636e-17
   1.99844 5.14011e-17
   1.99889 -2.5253e-17
   1.99933 -1.99103e-17
   1.99978 2.2722e-17
         2 2.3922e-17
