         0 -5.49353e-20
 0.0002225 5.08458e-20
 0.0006675 5.95222e-20
 0.0011125 -3.83753e-21
 0.0015575 4.26661e-20
 0.0020025 -6.4072e-20
 0.0024475 -9.99201e-21
 0.0028925 -3.72857e-20
 0.0033375 -7.17362e-20
 0.0037825 5.0475e-21
 0.0042275 3.90448e-21
 0.0046725 2.62475e-20
 0.0051175 -1.81577e-20
 0.0055625 -3.84838e-21
 0.0060075 -7.90603e-20
 0.0064525 5.6826e-20
 0.0068975 3.38949e-20
 0.0073476 9.62473e-21
0.00781612 -5.09149e-20
0.00831203 7.85407e-20
0.00883694 -7.37041e-21
0.00939255 3.30267e-20
0.00998065 -3.85961e-20
 0.0106031 1.16897e-20
  0.011262 6.14702e-20
 0.0119594 2.1788e-20
 0.0126977 1.27941e-20
  0.013479 -2.52019e-20
 0.0143061 3.35615e-20
 0.0151815 -3.15073e-20
 0.0161082 8.89981e-21
  0.017089 -9.85364e-21
 0.0181271 1.38698e-20
  0.019226 3.2709e-20
 0.0203891 6.87541e-20
 0.0216203 2.39603e-20
 0.0229234 4.97723e-20
 0.0243028 1.53434e-20
 0.0257628 5.75925e-20
 0.0273082 5.79099e-21
  0.028944 5.41833e-20
 0.0306754 5.49707e-20
 0.0325081 4.91976e-20
 0.0344479 -5.27318e-20
 0.0365012 6.22972e-20
 0.0386746 4.68492e-20
  0.040975 4.49022e-21
   0.04341 5.73982e-20
 0.0459873 2.38083e-20
 0.0487154 -9.68694e-21
  0.051603 -4.60919e-20
 0.0546595 5.52986e-20
 0.0578947 4.14052e-20
 0.0613191 -4.52095e-21
 0.0649437 4.47252e-20
 0.0687803 3.71286e-20
 0.0728413 9.59156e-20
 0.0771397 -2.84365e-20
 0.0816895 -2.69427e-20
 0.0865054 1.97571e-20
 0.0916029 5.01351e-20
 0.0969985 -7.57916e-20
   0.10271 -4.72671e-20
  0.108755 -2.64674e-21
  0.115153 -2.71424e-20
  0.121926 5.57885e-20
  0.129095 4.57314e-20
  0.136683 2.26449e-20
  0.144715 1.2009e-20
  0.153216 3.82883e-20
  0.162214 -2.48131e-20
  0.171739 -2.92065e-20
  0.181821 1.57634e-20
  0.192492 -3.06978e-21
  0.203788 6.93344e-21
  0.215744 4.45079e-21
  0.228399 -6.68991e-21
  0.241794 -5.80815e-20
  0.255972 1.20202e-20
   0.27098 -1.81385e-20
  0.286865 1.62874e-20
  0.304824 -7.52934e-21
  0.324407 -4.29632e-21
  0.343989 -2.06084e-20
  0.363571 3.4352e-20
  0.383154 -6.90659e-21
  0.402736 4.78103e-21
  0.422319 -9.32075e-21
  0.441901 5.26721e-21
  0.461484 -8.48544e-21
  0.481066 -4.26635e-21
  0.500648 2.4389e-20
  0.520231 -7.81293e-21
  0.539813 -2.25507e-21
  0.559396 4.44418e-21
  0.578978 -8.59603e-22
   0.59856 -4.52438e-21
  0.618143 -1.28093e-21
  0.637725 5.41078e-21
  0.657308 3.39457e-21
   0.67689 9.70629e-21
  0.696473 4.45133e-21
  0.716055 -4.9461e-21
  0.735637 -2.7924e-21
   0.75522 -4.98106e-21
  0.774802 -5.56352e-21
  0.794385 2.2477e-21
  0.813967 1.20942e-20
  0.833549 -3.71225e-21
  0.853132 -6.71729e-21
  0.872714 -1.67048e-20
  0.892297 9.74448e-21
  0.911879 -1.33706e-20
  0.931462 -1.28519e-20
  0.951044 2.51376e-20
  0.970626 -1.50139e-21
  0.990209 1.25233e-20
   1.00979 8.96599e-21
   1.02937 -3.13567e-21
   1.04896 3.40643e-21
   1.06854 -7.49618e-21
   1.08812 -6.48837e-21
    1.1077 1.39134e-20
   1.12729 2.38148e-20
   1.14687 2.20997e-21
   1.16645 -2.37167e-20
   1.18603 6.24351e-21
   1.20562 3.37729e-21
    1.2252 8.38392e-21
   1.24478 -1.0672e-20
   1.26436 9.23811e-21
   1.28395 -5.77925e-21
   1.30353 -1.03707e-20
   1.32311 3.73816e-21
   1.34269 -5.30724e-21
   1.36228 -1.79266e-21
   1.38186 1.90735e-22
   1.40144 4.6001e-21
   1.42102 5.79384e-21
   1.44061 3.49611e-21
   1.46019 1.02969e-21
   1.47977 -4.07277e-21
   1.49935 4.52272e-21
   1.51894 -2.49027e-20
   1.53852 1.80081e-20
    1.5581 -2.19371e-20
   1.57768 -2.73629e-20
   1.59727 1.2115e-20
   1.61685 3.47121e-20
   1.63643 -5.18105e-21
   1.65601 2.53205e-20
    1.6756 -4.00226e-21
   1.69518 -2.04899e-20
   1.71314 -1.2688e-20
   1.72902 2.34053e-20
   1.74403 3.86925e-20
   1.75821 -3.24385e-20
    1.7716 -1.47048e-20
   1.78426 1.28863e-20
   1.79621 -1.25811e-20
   1.80751 1.82031e-20
   1.81818 -8.78251e-21
   1.82826 -2.50888e-21
   1.83779 -1.11063e-20
   1.84679 4.18453e-20
   1.85529 1.83116e-20
   1.86332 -2.39735e-20
   1.87091 -1.30313e-20
   1.87808 -4.99045e-20
   1.88485 -2.60287e-20
   1.89125 -2.73297e-21
   1.89729 5.34668e-20
     1.903 -1.02715e-20
    1.9084 -3.49066e-20
    1.9135 8.00192e-22
   1.91831 -1.25717e-20
   1.92286 -2.05719e-20
   1.92716 1.27588e-20
   1.93122 8.2392e-20
   1.93506 1.38367e-20
   1.93868 -2.21465e-20
   1.94211 -4.47393e-20
   1.94534 -7.42161e-20
    1.9484 -6.06757e-20
   1.95129 2.64567e-20
   1.95401 4.69557e-20
   1.95659 -3.15573e-20
   1.95903 -5.40454e-20
   1.96133 -1.2234e-20
    1.9635 1.35191e-20
   1.96555 1.97004e-20
   1.96749 1.86669e-20
   1.96933 6.05349e-20
   1.97106 -1.12018e-21
   1.97269 -5.81376e-21
   1.97424 -6.05925e-20
    1.9757 -1.59913e-21
   1.97708 -5.4418e-20
   1.97838 -5.18654e-21
   1.97961 7.86953e-22
   1.98077 9.07278e-20
   1.98187 -6.72729e-20
   1.98291 3.03894e-20
   1.98389 -1.45258e-19
   1.98482 1.62911e-19
   1.98569 -2.16055e-19
   1.98652 1.45349e-19
    1.9873 -1.27472e-19
   1.98804 -2.15881e-20
   1.98874 2.88553e-19
    1.9894 -5.39601e-20
   1.99002 -2.15743e-19
   1.99061 2.09115e-19
   1.99116 -1.86994e-19
   1.99169 2.61727e-19
   1.99218 -1.16882e-19
   1.99265 -6.35523e-20
    1.9931 8.6845e-20
   1.99355 -2.19191e-19
   1.99399 1.91817e-19
   1.99444 -5.09303e-20
   1.99488 7.85805e-20
   1.99533 1.36241e-19
   1.99577 -2.56779e-19
   1.99622 2.62903e-19
   1.99666 1.7152e-19
   1.99711 -2.7983e-20
   1.99755 -1.32493e-19
     1.998 6.51109e-20
   1.99844 1.32629e-19
   1.99889 -3.51274e-19
   1.99933 1.91085e-19
   1.99978 -2.25487e-21
         2 -1.13693e-20
