         0 -1.01754e-20
 0.0002225 2.60003e-19
 0.0006675 2.66085e-20
 0.0011125 -8.58916e-20
 0.0015575 -3.2788e-19
 0.0020025 -1.53536e-19
 0.0024475  1.125e-19
 0.0028925 -2.48586e-20
 0.0033375  3.688e-19
 0.0037825 1.07425e-19
 0.0042275 3.06565e-19
 0.0046725 -3.10096e-19
 0.0051175 5.90092e-19
 0.0055625 2.24647e-20
 0.0060075 3.34155e-19
 0.0064525 1.76768e-20
 0.0068975 2.91651e-19
 0.0073476 3.70039e-19
0.00781612 4.77814e-19
0.00831203 1.61544e-19
0.00883694 2.69624e-19
0.00939255 -8.74821e-20
0.00998065 -7.21641e-19
 0.0106031 -1.60739e-19
  0.011262 -1.30841e-19
 0.0119594 3.58294e-19
 0.0126977 -1.11215e-19
  0.013479 5.07849e-19
 0.0143061 8.62006e-20
 0.0151815 1.52022e-19
 0.0161082 7.52517e-19
  0.017089 6.19594e-20
 0.0181271 1.30105e-19
  0.019226 2.32501e-19
 0.0203891 4.33637e-19
 0.0216203 8.03736e-19
 0.0229234 6.43364e-19
 0.0243028 4.71917e-19
 0.0257628 3.12916e-20
 0.0273082 -2.32614e-20
  0.028944 -2.79985e-20
 0.0306754 1.77506e-19
 0.0325081 3.1003e-19
 0.0344479 5.27963e-19
 0.0365012 7.09961e-19
 0.0386746 3.59608e-20
  0.040975 4.18904e-19
   0.04341 4.61586e-19
 0.0459873 7.16496e-19
 0.0487154 1.82148e-19
  0.051603 4.44773e-19
 0.0546595 6.76621e-19
 0.0578947 4.4649e-19
 0.0613191 -1.70734e-19
 0.0649437 2.34637e-19
 0.0687803 1.85692e-19
 0.0728413 4.05244e-19
 0.0771397 2.54323e-19
 0.0816895 2.24328e-19
 0.0865054 -1.66423e-19
 0.0916029 -8.9052e-20
 0.0969985 -2.28851e-19
   0.10271 -2.62789e-19
  0.108755 -2.99402e-19
  0.115153 -1.16384e-19
  0.121926 4.30298e-20
  0.129095 -6.64776e-20
  0.136683 -1.20448e-19
  0.144715 -4.20855e-20
  0.153216 -2.92951e-19
  0.162214 -1.14421e-19
  0.171739 -1.30697e-19
  0.181821 1.82845e-19
  0.192492 1.57772e-19
  0.203788 3.16789e-19
  0.215744 3.23077e-19
  0.228399 1.91032e-19
  0.241794 2.05174e-19
  0.255972 -5.3681e-20
   0.27098 -8.40235e-20
  0.286865 9.0719e-20
  0.304824 2.02081e-19
  0.324407 3.71155e-19
  0.343989 5.20409e-20
  0.363571 1.34276e-19
  0.383154 -8.01003e-20
  0.402736 -1.12758e-19
  0.422319 -1.70907e-19
  0.441901 -1.74793e-19
  0.461484 2.11123e-19
  0.481066 4.90103e-19
  0.500648 2.16997e-19
  0.520231 1.09833e-19
  0.539813 4.85421e-19
  0.559396 6.50577e-19
  0.578978 3.07145e-19
   0.59856 1.13366e-19
  0.618143 3.57082e-21
  0.637725 3.86928e-19
  0.657308 -3.46451e-20
   0.67689 4.05939e-19
  0.696473 5.41802e-19
  0.716055 4.93799e-19
  0.735637 -8.81765e-20
   0.75522 2.5982e-19
  0.774802 -1.96976e-19
  0.794385 9.36054e-20
  0.813967 -4.15846e-21
  0.833549 1.56416e-19
  0.853132 -1.1534e-19
  0.872714 -5.76229e-20
  0.892297 -2.95947e-21
  0.911879 -2.31415e-19
  0.931462 5.4015e-21
  0.951044 -9.40545e-20
  0.970626 -1.15868e-19
  0.990209 -6.65407e-20
   1.00979 -4.03854e-20
   1.02937 -1.92368e-19
   1.04896 -3.18262e-20
   1.06854 -9.13424e-20
   1.08812 2.55725e-20
    1.1077 -1.07044e-19
   1.12729 -1.29292e-19
   1.14687 -3.82414e-19
   1.16645 1.43288e-19
   1.18603 9.57501e-20
   1.20562 -1.31567e-19
    1.2252 7.04902e-20
   1.24478 -1.92106e-19
   1.26436 -9.1072e-20
   1.28395 -8.20365e-20
   1.30353 3.36794e-21
   1.32311 4.13477e-20
   1.34269 1.08088e-19
   1.36228 2.41543e-19
   1.38186 -5.24702e-19
   1.40144 -5.60148e-20
   1.42102 5.5197e-20
   1.44061 -2.14577e-19
   1.46019 -1.9082e-22
   1.47977 -7.73177e-20
   1.49935 -1.41576e-19
   1.51894 -3.69112e-19
   1.53852 -1.75396e-19
    1.5581 -1.9514e-20
   1.57768 -4.1725e-20
   1.59727 -5.48208e-20
   1.61685 -1.01673e-19
   1.63643 -1.16823e-19
   1.65601 -3.80697e-19
    1.6756 -2.47261e-19
   1.69518 -3.04087e-19
   1.71314 -2.35915e-19
   1.72902 -9.83129e-20
   1.74403 -1.59466e-19
   1.75821 -2.27635e-19
    1.7716 -1.74329e-19
   1.78426 -4.43319e-20
   1.79621 -1.75221e-19
   1.80751 -1.70677e-19
   1.81818 -2.31186e-19
   1.82826 1.63994e-19
   1.83779 5.51431e-20
   1.84679 2.01822e-19
   1.85529 -2.37205e-19
   1.86332 7.39068e-20
   1.87091 -3.41314e-19
   1.87808 1.24542e-20
   1.88485 3.37026e-19
   1.89125 8.04264e-19
   1.89729 -2.1264e-19
     1.903 7.43038e-19
    1.9084 8.16495e-19
    1.9135 3.6558e-19
   1.91831 5.94119e-19
   1.92286 7.01022e-19
   1.92716 1.28978e-18
   1.93122 2.20505e-19
   1.93506 7.28221e-19
   1.93868 4.29807e-19
   1.94211 1.69248e-19
   1.94534 4.86076e-19
    1.9484 2.54945e-19
   1.95129 5.49007e-19
   1.95401 -7.72148e-19
   1.95659 7.46556e-19
   1.95903 3.48696e-19
   1.96133 -5.71108e-19
    1.9635 8.93959e-19
   1.96555 5.31493e-19
   1.96749 -1.14231e-18
   1.96933 1.29122e-18
   1.97106 -1.67681e-18
   1.97269 1.01177e-18
   1.97424 3.56186e-19
    1.9757 -2.69259e-18
   1.97708 1.73233e-18
   1.97838 -3.4469e-20
   1.97961 9.00417e-19
   1.98077 -1.99746e-18
   1.98187 5.77984e-19
   1.98291 2.91047e-18
   1.98389 2.36625e-19
   1.98482 -1.12311e-18
   1.98569 1.54289e-18
   1.98652 -1.10598e-18
    1.9873 -1.80292e-19
   1.98804 3.95161e-19
   1.98874 1.66609e-18
    1.9894 -1.44568e-18
   1.99002 1.10053e-19
   1.99061 1.78898e-18
   1.99116 -5.90937e-18
   1.99169 -2.83074e-18
   1.99218 6.57852e-18
   1.99265 2.05975e-18
    1.9931 2.60506e-18
   1.99355 1.63855e-19
   1.99399 -8.51772e-18
   1.99444 6.65354e-18
   1.99488 1.50791e-18
   1.99533 -3.93012e-19
   1.99577 -2.11861e-18
   1.99622 -4.77357e-19
   1.99666 7.71085e-21
   1.99711 1.81626e-18
   1.99755 -1.6826e-18
     1.998 -2.83731e-18
   1.99844 3.12556e-18
   1.99889 -2.5535e-18
   1.99933 5.56003e-19
   1.99978 2.18547e-18
         2 1.84748e-18
