         0   -57.2435
 0.0002225   -57.2435
 0.0006675   -109.659
 0.0011125   -214.432
 0.0015575   -370.473
 0.0020025   -574.061
 0.0024475   -818.455
 0.0028925   -1093.87
 0.0033375   -1388.21
 0.0037825   -1688.26
 0.0042275   -1980.89
 0.0046725   -2254.29
 0.0051175   -2498.75
 0.0055625   -2707.25
 0.0060075    -2875.5
 0.0064525   -3001.82
 0.0068975   -3090.64
 0.0073476   -3147.33
0.00781612   -3164.94
0.00831203   -3141.03
0.00883694   -3081.07
0.00939255   -2987.08
0.00998065   -2862.53
 0.0106031   -2712.09
  0.011262   -2541.26
 0.0119594   -2355.99
 0.0126977   -2162.28
  0.013479   -1965.78
 0.0143061   -1771.51
 0.0151815   -1583.66
 0.0161082   -1405.48
  0.017089   -1239.31
 0.0181271   -1086.59
  0.019226   -947.999
 0.0203891   -823.602
 0.0216203    -712.97
 0.0229234   -615.333
 0.0243028    -529.71
 0.0257628   -455.002
 0.0273082   -390.075
  0.028944    -333.84
 0.0306754   -285.272
 0.0325081   -243.414
 0.0344479   -207.396
 0.0365012   -176.453
 0.0386746   -149.941
  0.040975   -127.297
   0.04341   -107.961
 0.0459873   -91.4468
 0.0487154   -77.3746
  0.051603   -65.4325
 0.0546595   -55.3557
 0.0578947   -46.8449
 0.0613191   -39.6345
 0.0649437   -33.5812
 0.0687803   -28.5213
 0.0728413   -24.2462
 0.0771397   -20.6618
 0.0816895   -17.6816
 0.0865054   -15.1653
 0.0916029   -13.0149
 0.0969985    -11.195
   0.10271    -9.6994
  0.108755   -8.53744
  0.115153   -7.55249
  0.121926   -6.64067
  0.129095   -5.85813
  0.136683    -5.2086
  0.144715   -4.64032
  0.153216   -4.10178
  0.162214   -3.58906
  0.171739   -3.15583
  0.181821   -2.87244
  0.192492    -2.5658
  0.203788   -2.33829
  0.215744   -2.12272
  0.228399   -1.82057
  0.241794   -1.66752
  0.255972   -1.38527
   0.27098    -1.2671
  0.286865   -1.05752
  0.304824  -0.943779
  0.324407  -0.914121
  0.343989  -0.878964
  0.363571  -0.902831
  0.383154  -0.761045
  0.402736  -0.747971
  0.422319  -0.674288
  0.441901  -0.581748
  0.461484  -0.663262
  0.481066  -0.712034
  0.500648  -0.672762
  0.520231  -0.619838
  0.539813  -0.538009
  0.559396   -0.52736
  0.578978  -0.523313
   0.59856  -0.507531
  0.618143  -0.519325
  0.637725  -0.520025
  0.657308  -0.552249
   0.67689  -0.571934
  0.696473  -0.575959
  0.716055  -0.595297
  0.735637  -0.637149
   0.75522  -0.621001
  0.774802  -0.621424
  0.794385  -0.700001
  0.813967  -0.749114
  0.833549  -0.755877
  0.853132  -0.746126
  0.872714    -0.7932
  0.892297  -0.808915
  0.911879  -0.861614
  0.931462   -0.91118
  0.951044  -0.971258
  0.970626   -1.01727
  0.990209  -0.993107
   1.00979  -0.959448
   1.02937   -0.91902
   1.04896  -0.909872
   1.06854  -0.895457
   1.08812  -0.894548
    1.1077  -0.881603
   1.12729  -0.800012
   1.14687  -0.761451
   1.16645  -0.780567
   1.18603  -0.715628
   1.20562  -0.629326
    1.2252  -0.637243
   1.24478  -0.623837
   1.26436  -0.600276
   1.28395   -0.57511
   1.30353  -0.547416
   1.32311  -0.532535
   1.34269  -0.537374
   1.36228   -0.52693
   1.38186  -0.523341
   1.40144  -0.540271
   1.42102  -0.576596
   1.44061  -0.547835
   1.46019  -0.608194
   1.47977  -0.636979
   1.49935  -0.613753
   1.51894  -0.631446
   1.53852  -0.718165
    1.5581  -0.787629
   1.57768  -0.890844
   1.59727  -0.817661
   1.61685  -0.792141
   1.63643  -0.962892
   1.65601   -1.08589
    1.6756   -1.15391
   1.69518   -0.98339
   1.71314   -1.03301
   1.72902   -1.35972
   1.74403   -1.35139
   1.75821   -1.61458
    1.7716   -1.80116
   1.78426   -1.95889
   1.79621   -2.15808
   1.80751   -2.45835
   1.81818   -2.80132
   1.82826   -3.16314
   1.83779   -3.57996
   1.84679   -4.10042
   1.85529   -4.58918
   1.86332   -5.07985
   1.87091   -5.64387
   1.87808    -6.3769
   1.88485   -7.28762
   1.89125   -8.37869
   1.89729   -9.73771
     1.903   -11.2829
    1.9084   -13.0465
    1.9135   -15.1913
   1.91831    -17.739
   1.92286   -20.7237
   1.92716   -24.2527
   1.93122   -28.4228
   1.93506    -33.417
   1.93868   -39.3952
   1.94211   -46.4749
   1.94534   -54.9052
    1.9484    -64.955
   1.95129   -76.8171
   1.95401   -90.7732
   1.95659   -107.185
   1.95903   -126.471
   1.96133    -149.08
    1.9635   -175.506
   1.96555    -206.35
   1.96749   -242.298
   1.96933    -284.11
   1.97106   -332.626
   1.97269   -388.792
   1.97424   -453.644
    1.9757    -528.28
   1.97708   -613.808
   1.97838   -711.311
   1.97961    -821.76
   1.98077   -945.919
   1.98187   -1084.24
   1.98291   -1236.69
   1.98389   -1402.61
   1.98482   -1580.57
   1.98569   -1768.27
   1.98652   -1962.46
    1.9873   -2158.98
   1.98804   -2352.83
   1.98874   -2538.35
    1.9894   -2709.57
   1.99002   -2860.52
   1.99061   -2985.68
   1.99116   -3080.36
   1.99169   -3141.05
   1.99218   -3165.69
   1.99265   -3148.76
    1.9931   -3092.69
   1.99355   -3004.45
   1.99399   -2878.63
   1.99444   -2710.76
   1.99488   -2502.47
   1.99533   -2258.04
   1.99577   -1984.52
   1.99622   -1691.59
   1.99666   -1391.13
   1.99711   -1096.27
   1.99755   -820.298
     1.998   -575.354
   1.99844   -371.274
   1.99889   -214.836
   1.99933   -109.794
   1.99978   -57.2559
         2   -57.2559
