         0 -0.00408256
 0.0002225 -0.00408256
 0.0006675 -0.0210494
 0.0011125 -0.0490792
 0.0015575 -0.0811735
 0.0020025  -0.110965
 0.0024475  -0.132839
 0.0028925  -0.142311
 0.0033375  -0.137286
 0.0037825  -0.118199
 0.0042275 -0.0872719
 0.0046725 -0.0479032
 0.0051175 -0.0041008
 0.0055625  0.0401214
 0.0060075  0.0810427
 0.0064525   0.114653
 0.0068975   0.138457
 0.0073476   0.153068
0.00781612   0.160988
0.00831203    0.16304
0.00883694   0.160557
0.00939255   0.156744
0.00998065   0.153293
 0.0106031   0.152227
  0.011262   0.156071
 0.0119594   0.163175
 0.0126977   0.172975
  0.013479   0.183756
 0.0143061    0.19188
 0.0151815   0.196597
 0.0161082   0.196908
  0.017089   0.190306
 0.0181271   0.178027
  0.019226   0.165809
 0.0203891   0.154429
 0.0216203   0.135662
 0.0229234   0.111285
 0.0243028  0.0860639
 0.0257628   0.056479
 0.0273082  0.0240288
  0.028944 0.00249079
 0.0306754 0.00648914
 0.0325081  0.0183502
 0.0344479  0.0103195
 0.0365012 -0.0137069
 0.0386746 -0.0317904
  0.040975 -0.0525831
   0.04341 -0.0624629
 0.0459873 -0.0392537
 0.0487154 -0.0246359
  0.051603 -0.0432666
 0.0546595  -0.089916
 0.0578947  -0.150622
 0.0613191   -0.19247
 0.0649437  -0.208728
 0.0687803   -0.22597
 0.0728413  -0.254902
 0.0771397  -0.270792
 0.0816895  -0.225013
 0.0865054  -0.128563
 0.0916029 -0.0483115
 0.0969985   -0.01732
   0.10271 -0.00958514
  0.108755  0.0132743
  0.115153  0.0571462
  0.121926   0.113086
  0.129095   0.175896
  0.136683   0.221914
  0.144715   0.150566
  0.153216  0.0179311
  0.162214 -0.0449659
  0.171739 -0.0141834
  0.181821 0.00489554
  0.192492 -0.0103181
  0.203788 -0.0538236
  0.215744 -0.0792779
  0.228399 0.00884407
  0.241794 -0.0198326
  0.255972    -0.1201
   0.27098  -0.137312
  0.286865 -0.0421908
  0.304824   0.077074
  0.324407  0.0361278
  0.343989 -0.0241378
  0.363571 0.00609447
  0.383154 -0.000954585
  0.402736 -0.0191907
  0.422319 -0.00222127
  0.441901  0.0158032
  0.461484 -0.0325403
  0.481066 -0.0608377
  0.500648 -0.0541459
  0.520231 -0.0130874
  0.539813  0.0177851
  0.559396 -0.0475973
  0.578978 -0.0967084
   0.59856 -0.0599995
  0.618143 0.00256019
  0.637725  0.0514827
  0.657308  0.0199309
   0.67689 0.00951061
  0.696473 0.00835549
  0.716055  0.0197589
  0.735637  0.0184901
   0.75522 -0.0326771
  0.774802 -0.00606598
  0.794385  0.0354039
  0.813967  0.0792309
  0.833549  0.0581578
  0.853132 -0.0361831
  0.872714 -0.00171469
  0.892297  0.0248442
  0.911879  0.0196942
  0.931462 -0.0428431
  0.951044 -0.0555522
  0.970626  0.0172163
  0.990209  0.0315333
   1.00979 0.00811801
   1.02937  0.0402399
   1.04896   0.033495
   1.06854 -0.00298695
   1.08812 -0.0556586
    1.1077 -0.0240237
   1.12729  0.0165204
   1.14687  0.0367396
   1.16645  0.0379085
   1.18603  0.0190426
   1.20562 0.00113597
    1.2252 0.000679236
   1.24478  0.0224947
   1.26436 -0.00787091
   1.28395 -0.0311018
   1.30353  0.0236737
   1.32311 -0.0130764
   1.34269 -0.0143153
   1.36228  0.0311189
   1.38186 -0.0247745
   1.40144  0.0333633
   1.42102  0.0416704
   1.44061 -0.0281724
   1.46019 -0.0571729
   1.47977   -0.10373
   1.49935 -0.0517545
   1.51894  -0.014074
   1.53852 -0.0148286
    1.5581 -1.80911e-05
   1.57768  0.0520651
   1.59727  0.0458929
   1.61685  0.0908541
   1.63643  0.0611434
   1.65601 0.00295232
    1.6756    0.10722
   1.69518    0.13405
   1.71314    0.14011
   1.72902  0.0540505
   1.74403 -0.0998157
   1.75821   -0.11225
    1.7716 -0.0961009
   1.78426 -0.0451096
   1.79621  0.0382724
   1.80751  0.0403642
   1.81818 -0.00273365
   1.82826 -0.0255656
   1.83779  -0.026953
   1.84679 -0.0495331
   1.85529  -0.101856
   1.86332 -0.0564437
   1.87091  0.0302062
   1.87808   0.103631
   1.88485   0.102917
   1.89125  0.0518794
   1.89729  0.0224411
     1.903 -0.00635441
    1.9084 -0.0411523
    1.9135 -0.0992675
   1.91831  -0.164705
   1.92286  -0.229465
   1.92716  -0.269557
   1.93122  -0.255444
   1.93506  -0.179487
   1.93868 -0.0962211
   1.94211 -0.0686863
   1.94534 -0.0732325
    1.9484 -0.0874265
   1.95129  -0.105545
   1.95401   -0.13335
   1.95659  -0.163329
   1.95903  -0.170763
   1.96133  -0.141684
    1.9635 -0.0886792
   1.96555 -0.0146038
   1.96749  0.0582194
   1.96933   0.129512
   1.97106   0.201594
   1.97269   0.279414
   1.97424   0.371394
    1.9757    0.47132
   1.97708   0.564615
   1.97838   0.638279
   1.97961   0.690777
   1.98077   0.722981
   1.98187   0.730805
   1.98291   0.715328
   1.98389   0.681597
   1.98482   0.628199
   1.98569   0.558309
   1.98652   0.472678
    1.9873   0.366946
   1.98804   0.239968
   1.98874  0.0958807
    1.9894 -0.0562284
   1.99002  -0.208786
   1.99061  -0.353869
   1.99116   -0.48428
   1.99169  -0.597057
   1.99218  -0.688735
   1.99265  -0.758888
    1.9931  -0.808871
   1.99355   -0.83944
   1.99399  -0.849412
   1.99444   -0.83794
   1.99488  -0.803522
   1.99533  -0.747422
   1.99577  -0.673117
   1.99622  -0.583507
   1.99666  -0.483721
   1.99711    -0.3804
   1.99755  -0.280477
     1.998    -0.1902
   1.99844  -0.114673
   1.99889 -0.0572305
   1.99933 -0.0195815
   1.99978 -0.00218852
         2 -0.00218852
