         0  0.0337836
 0.0002225  0.0337836
 0.0006675 -0.0573571
 0.0011125  -0.211147
 0.0015575  -0.113759
 0.0020025  -0.047142
 0.0024475 -0.0275107
 0.0028925 -0.0161214
 0.0033375 -0.00559369
 0.0037825  0.0021123
 0.0042275 0.00685971
 0.0046725 0.00957476
 0.0051175  0.0105749
 0.0055625  0.0148229
 0.0060075  0.0358511
 0.0064525  0.0670213
 0.0068975  0.0199956
 0.0073476 -0.0685365
0.00781612 -0.0612287
0.00831203 -0.0255933
0.00883694 -0.00909129
0.00939255  -0.011282
0.00998065 -0.0136358
 0.0106031  -0.012854
  0.011262 -0.0104541
 0.0119594 -0.00866029
 0.0126977 -0.00631987
  0.013479 -0.00323482
 0.0143061 -4.80088e-05
 0.0151815 0.00407358
 0.0161082 0.00661137
  0.017089 0.00869322
 0.0181271  0.0117552
  0.019226  0.0124354
 0.0203891  0.0123045
 0.0216203     0.0125
 0.0229234  0.0120028
 0.0243028  0.0103989
 0.0257628 0.00762518
 0.0273082  0.0058874
  0.028944 0.00611805
 0.0306754 0.00449253
 0.0325081  0.0030529
 0.0344479 0.00348574
 0.0365012 0.00360189
 0.0386746 0.00313222
  0.040975 3.11153e-05
   0.04341 -0.00515044
 0.0459873 -0.00586616
 0.0487154 -0.00525906
  0.051603 -0.00556798
 0.0546595 -0.00577137
 0.0578947 -0.00575671
 0.0613191 -0.00357015
 0.0649437 -0.00397422
 0.0687803 -0.00411928
 0.0728413 0.000477922
 0.0771397 -0.000276444
 0.0816895 0.00121625
 0.0865054 0.00098718
 0.0916029 0.00120572
 0.0969985 -0.00168227
   0.10271 -0.000931142
  0.108755 0.00337373
  0.115153 0.00253999
  0.121926 -0.0012653
  0.129095 0.00279299
  0.136683 0.00335709
  0.144715 -0.00383718
  0.153216 0.000341699
  0.162214 -0.000221877
  0.171739 0.00545634
  0.181821 -0.0104733
  0.192492  0.0237042
  0.203788 -0.0286091
  0.215744  0.0320825
  0.228399 -0.0547093
  0.241794   0.093615
  0.255972   -0.13874
   0.27098   0.158594
  0.286865 -0.0894552
  0.304824 -0.0356125
  0.324407   0.106633
  0.343989  -0.104051
  0.363571  0.0792207
  0.383154  -0.060939
  0.402736  0.0425123
  0.422319  -0.024796
  0.441901  0.0117521
  0.461484 -0.00548767
  0.481066 0.00254739
  0.500648 -0.000553584
  0.520231 0.00119522
  0.539813 -0.00361675
  0.559396 0.00590792
  0.578978 -0.00862987
   0.59856  0.0103319
  0.618143 -0.00881988
  0.637725  0.0049315
  0.657308 -0.00417598
   0.67689 0.00569448
  0.696473 -0.00529655
  0.716055 0.00474707
  0.735637 -0.00350404
   0.75522 0.00270934
  0.774802 -0.00364212
  0.794385 0.00222552
  0.813967 0.000501804
  0.833549 -0.00103276
  0.853132 0.00114688
  0.872714 -0.000583578
  0.892297 -0.00167743
  0.911879 0.00240608
  0.931462 -0.00114135
  0.951044 0.000606049
  0.970626 -0.00134247
  0.990209 0.00277515
   1.00979 -0.00272657
   1.02937 0.00124252
   1.04896 0.000319782
   1.06854 -0.00167364
   1.08812 0.000585467
    1.1077 0.00198209
   1.12729 -0.00305811
   1.14687 0.00344928
   1.16645 -0.00429321
   1.18603 0.00588723
   1.20562 -0.00669164
    1.2252 0.00551697
   1.24478 -0.00332554
   1.26436 0.00177023
   1.28395 -0.00415854
   1.30353 0.00728806
   1.32311 -0.00833382
   1.34269 0.00976115
   1.36228 -0.0114548
   1.38186  0.0123761
   1.40144 -0.0124169
   1.42102  0.0133874
   1.44061 -0.0153663
   1.46019  0.0137477
   1.47977 -0.00844472
   1.49935 0.00335363
   1.51894 0.00073013
   1.53852 0.00128276
    1.5581 -0.0118834
   1.57768  0.0266139
   1.59727  -0.042296
   1.61685  0.0581948
   1.63643  -0.076061
   1.65601   0.105205
    1.6756   -0.11748
   1.69518   0.053788
   1.71314  0.0733426
   1.72902   -0.15358
   1.74403   0.134973
   1.75821 -0.0861387
    1.7716  0.0497648
   1.78426  -0.029425
   1.79621  0.0191105
   1.80751 -0.0122205
   1.81818 0.00828797
   1.82826 -0.00669466
   1.83779 0.00115995
   1.84679 0.00103281
   1.85529 -0.000110562
   1.86332 -0.00365219
   1.87091 -0.00230512
   1.87808 -0.0031867
   1.88485 0.00419791
   1.89125 -0.000543916
   1.89729 -0.000164652
     1.903 -0.00112782
    1.9084 -9.39055e-05
    1.9135 -0.00433659
   1.91831 -0.00296179
   1.92286 0.00423459
   1.92716 0.00435714
   1.93122 0.000475591
   1.93506 0.00169219
   1.93868 0.00352377
   1.94211 0.00441967
   1.94534 0.00599246
    1.9484 0.00730027
   1.95129 0.00799004
   1.95401 0.00701874
   1.95659 0.00286221
   1.95903 -0.00083529
   1.96133 -0.00209884
    1.9635 -0.00301582
   1.96555 -0.00383883
   1.96749 -0.00525626
   1.96933 -0.00575946
   1.97106 -0.00555901
   1.97269 -0.00598052
   1.97424 -0.00721949
    1.9757 -0.00957037
   1.97708 -0.0114268
   1.97838  -0.012707
   1.97961 -0.0137087
   1.98077 -0.0127214
   1.98187 -0.0110851
   1.98291 -0.00934474
   1.98389 -0.00672046
   1.98482 -0.00329572
   1.98569 0.000278376
   1.98652 0.00371356
    1.9873 0.00654732
   1.98804 0.00855852
   1.98874  0.0107404
    1.9894  0.0127067
   1.99002   0.013291
   1.99061  0.0115252
   1.99116  0.0090949
   1.99169  0.0254886
   1.99218  0.0616262
   1.99265  0.0688339
    1.9931 -0.0203725
   1.99355 -0.0670725
   1.99399 -0.0362013
   1.99444 -0.0152989
   1.99488  -0.010286
   1.99533 -0.00944381
   1.99577 -0.00695747
   1.99622 -0.00218941
   1.99666 0.00553494
   1.99711  0.0162834
   1.99755  0.0277645
     1.998  0.0473549
   1.99844     0.1143
   1.99889   0.212094
   1.99933  0.0575362
   1.99978 -0.0339804
         2 -0.0339804
