         0          0
 0.0002225 3.26594e-08
 0.0006675 1.04944e-07
 0.0011125 1.65764e-07
 0.0015575 1.83312e-07
 0.0020025 1.77619e-07
 0.0024475 1.62585e-07
 0.0028925 1.4192e-07
 0.0033375 1.19037e-07
 0.0037825 9.4238e-08
 0.0042275 6.5105e-08
 0.0046725 4.38269e-08
 0.0051175 2.21595e-08
 0.0055625 2.06307e-10
 0.0060075 -4.72111e-09
 0.0064525 -1.66883e-08
 0.0068975 -1.38463e-08
 0.0073476 -6.77017e-09
0.00781612 -1.87066e-08
0.00831203 -2.90775e-08
0.00883694 -5.04648e-08
0.00939255 -9.26508e-08
0.00998065 -1.45605e-07
 0.0106031 -2.05201e-07
  0.011262 -2.6112e-07
 0.0119594 -3.02946e-07
 0.0126977 -3.78891e-07
  0.013479 -4.78816e-07
 0.0143061 -5.65291e-07
 0.0151815 -6.28061e-07
 0.0161082 -6.85175e-07
  0.017089 -7.92482e-07
 0.0181271 -8.91547e-07
  0.019226 -9.37543e-07
 0.0203891 -9.64821e-07
 0.0216203 -9.19735e-07
 0.0229234 -9.65433e-07
 0.0243028 -1.05767e-06
 0.0257628 -1.21645e-06
 0.0273082 -1.31203e-06
  0.028944 -1.27017e-06
 0.0306754 -1.22931e-06
 0.0325081 -1.06748e-06
 0.0344479 -1.36187e-06
 0.0365012 -1.75139e-06
 0.0386746 -1.30418e-06
  0.040975 -9.27362e-07
   0.04341 -4.56615e-07
 0.0459873 4.94413e-07
 0.0487154 7.29853e-07
  0.051603 3.69058e-07
 0.0546595 6.47605e-07
 0.0578947 6.15858e-07
 0.0613191 6.32808e-07
 0.0649437 5.66586e-07
 0.0687803 -1.67977e-07
 0.0728413 7.12949e-07
 0.0771397 -6.56923e-07
 0.0816895 -4.59447e-06
 0.0865054 -3.28446e-06
 0.0916029 3.73952e-07
 0.0969985 -6.98092e-09
   0.10271 -1.69304e-06
  0.108755 -1.01922e-06
  0.115153 -2.41984e-06
  0.121926 -2.34824e-06
  0.129095 -5.41095e-06
  0.136683 3.04622e-06
  0.144715 -4.53981e-06
  0.153216 -6.53747e-06
  0.162214 -1.0925e-06
  0.171739 -8.99659e-06
  0.181821 -3.85079e-06
  0.192492 -5.62642e-06
  0.203788 -8.65669e-06
  0.215744 -3.19735e-07
  0.228399 -1.81668e-06
  0.241794 1.64461e-07
  0.255972 -1.38693e-05
   0.27098 -7.75259e-06
  0.286865 9.04638e-06
  0.304824 -1.04382e-05
  0.324407 1.07172e-05
  0.343989 3.55486e-07
  0.363571 -2.1234e-05
  0.383154 -9.01069e-06
  0.402736 1.35472e-05
  0.422319 -5.52834e-07
  0.441901 -6.40908e-06
  0.461484 -1.529e-06
  0.481066 -1.09014e-05
  0.500648 3.01356e-06
  0.520231 -1.8237e-05
  0.539813 1.80933e-05
  0.559396 -9.97346e-06
  0.578978 1.36037e-05
   0.59856 -1.37556e-05
  0.618143 6.84643e-06
  0.637725 -1.01632e-05
  0.657308 7.88936e-06
   0.67689 -8.18838e-06
  0.696473 1.00321e-05
  0.716055 -1.07502e-05
  0.735637 1.03038e-06
   0.75522 2.28984e-06
  0.774802 -2.07343e-06
  0.794385 -2.17134e-06
  0.813967 -8.48893e-06
  0.833549 9.14446e-06
  0.853132 -3.42645e-06
  0.872714 2.32433e-07
  0.892297 -1.13316e-06
  0.911879 3.29791e-06
  0.931462 -7.49578e-06
  0.951044 5.91168e-06
  0.970626 -3.89685e-06
  0.990209 2.45677e-06
   1.00979 -5.0147e-06
   1.02937 -1.79434e-06
   1.04896 1.05342e-05
   1.06854 -7.17491e-06
   1.08812 -2.86086e-06
    1.1077 2.92424e-07
   1.12729 6.44381e-06
   1.14687 -1.00363e-06
   1.16645 -1.92497e-06
   1.18603 5.55504e-06
   1.20562 -3.24796e-06
    1.2252 1.15764e-05
   1.24478 -5.04708e-06
   1.26436 -4.12286e-06
   1.28395 -7.78103e-06
   1.30353 1.8192e-05
   1.32311 -2.80902e-06
   1.34269 -3.34608e-06
   1.36228 4.67252e-06
   1.38186 1.2878e-05
   1.40144 2.04452e-06
   1.42102 -1.19379e-05
   1.44061 9.63094e-06
   1.46019 -9.14069e-06
   1.47977 6.67218e-06
   1.49935 3.31148e-06
   1.51894 7.9951e-06
   1.53852 -1.37901e-05
    1.5581 1.03931e-05
   1.57768 -1.59815e-05
   1.59727 3.42741e-05
   1.61685 -1.64988e-05
   1.63643 1.95595e-05
   1.65601 -3.86708e-05
    1.6756 5.89282e-05
   1.69518 -3.61476e-05
   1.71314 1.91158e-05
   1.72902 6.90559e-06
   1.74403 -9.5656e-06
   1.75821 1.46492e-05
    1.7716 -3.47006e-06
   1.78426 1.17076e-05
   1.79621 -1.66554e-06
   1.80751 -7.94972e-06
   1.81818 6.28477e-06
   1.82826 7.05785e-06
   1.83779 1.29544e-06
   1.84679 9.88772e-06
   1.85529 -3.27092e-06
   1.86332 3.72552e-06
   1.87091 9.31308e-06
   1.87808 3.74775e-06
   1.88485 8.30356e-06
   1.89125 8.01115e-06
   1.89729 3.67491e-06
     1.903 1.54978e-06
    1.9084 -7.42853e-07
    1.9135 5.2445e-07
   1.91831 -1.66779e-06
   1.92286 -1.8335e-06
   1.92716 -6.27012e-07
   1.93122 -3.38292e-07
   1.93506 -7.78699e-07
   1.93868 -6.25036e-08
   1.94211 8.12289e-07
   1.94534 9.75924e-07
    1.9484 -1.89428e-07
   1.95129 -5.16522e-07
   1.95401 1.00411e-06
   1.95659 1.68942e-06
   1.95903 1.47197e-06
   1.96133 1.06831e-06
    1.9635 7.0015e-07
   1.96555 5.30459e-07
   1.96749 4.87616e-07
   1.96933 4.80496e-07
   1.97106 8.92573e-07
   1.97269 1.34431e-06
   1.97424 1.31552e-06
    1.9757 1.1992e-06
   1.97708 1.19304e-06
   1.97838 1.20159e-06
   1.97961 1.07885e-06
   1.98077 9.39788e-07
   1.98187 8.69177e-07
   1.98291 8.29016e-07
   1.98389 7.37452e-07
   1.98482 6.27848e-07
   1.98569 5.24201e-07
   1.98652 4.60607e-07
    1.9873 4.07784e-07
   1.98804 3.31389e-07
   1.98874 2.48096e-07
    1.9894 1.89459e-07
   1.99002 1.39069e-07
   1.99061 1.09526e-07
   1.99116 5.98059e-08
   1.99169 1.98173e-08
   1.99218 2.09438e-08
   1.99265 1.61347e-08
    1.9931 2.27677e-08
   1.99355 2.18784e-08
   1.99399 9.44442e-09
   1.99444 4.03205e-09
   1.99488 -1.75473e-08
   1.99533 -4.56644e-08
   1.99577 -6.97122e-08
   1.99622 -9.61802e-08
   1.99666 -1.20839e-07
   1.99711 -1.44895e-07
   1.99755 -1.66137e-07
     1.998 -1.8199e-07
   1.99844 -1.87983e-07
   1.99889 -1.70239e-07
   1.99933 -1.08257e-07
   1.99978 -3.3833e-08
         2          0
