         0          0
 0.0002225 3.26743e-08
 0.0006675 1.04952e-07
 0.0011125 1.65753e-07
 0.0015575 1.83341e-07
 0.0020025 1.77682e-07
 0.0024475  1.626e-07
 0.0028925 1.41946e-07
 0.0033375 1.19052e-07
 0.0037825 9.40697e-08
 0.0042275 6.59208e-08
 0.0046725 4.50313e-08
 0.0051175 2.02325e-08
 0.0055625 -7.50772e-10
 0.0060075 -2.03226e-09
 0.0064525 -1.5346e-08
 0.0068975 -1.58719e-08
 0.0073476 -6.09281e-09
0.00781612 -1.86455e-08
0.00831203 -2.92795e-08
0.00883694 -4.65829e-08
0.00939255 -9.42522e-08
0.00998065 -1.44989e-07
 0.0106031 -2.08159e-07
  0.011262 -2.62086e-07
 0.0119594 -2.90965e-07
 0.0126977 -3.83564e-07
  0.013479 -4.84367e-07
 0.0143061 -5.5968e-07
 0.0151815 -6.22023e-07
 0.0161082 -6.82276e-07
  0.017089 -8.01959e-07
 0.0181271 -8.8419e-07
  0.019226 -9.30904e-07
 0.0203891 -9.66763e-07
 0.0216203 -9.20491e-07
 0.0229234 -9.75591e-07
 0.0243028 -1.06677e-06
 0.0257628 -1.21676e-06
 0.0273082 -1.30374e-06
  0.028944 -1.25798e-06
 0.0306754 -1.22332e-06
 0.0325081 -1.06949e-06
 0.0344479 -1.36378e-06
 0.0365012 -1.74734e-06
 0.0386746 -1.31762e-06
  0.040975 -9.48203e-07
   0.04341 -4.71841e-07
 0.0459873 4.98655e-07
 0.0487154 7.52702e-07
  0.051603 3.78389e-07
 0.0546595 6.3591e-07
 0.0578947 6.07417e-07
 0.0613191 6.49901e-07
 0.0649437 5.85487e-07
 0.0687803 -1.82748e-07
 0.0728413 6.77919e-07
 0.0771397 -6.51942e-07
 0.0816895 -4.56223e-06
 0.0865054 -3.23424e-06
 0.0916029 3.93026e-07
 0.0969985 -5.50418e-08
   0.10271 -1.71571e-06
  0.108755 -9.91844e-07
  0.115153 -2.41485e-06
  0.121926 -2.32415e-06
  0.129095 -5.43153e-06
  0.136683 3.07147e-06
  0.144715 -4.4656e-06
  0.153216 -6.58975e-06
  0.162214 -1.09626e-06
  0.171739 -8.95476e-06
  0.181821 -3.8637e-06
  0.192492 -5.64341e-06
  0.203788 -8.72003e-06
  0.215744 -3.05794e-07
  0.228399 -1.85908e-06
  0.241794 1.03089e-07
  0.255972 -1.3844e-05
   0.27098 -7.78157e-06
  0.286865 8.97046e-06
  0.304824 -1.0364e-05
  0.324407 1.06682e-05
  0.343989 3.81839e-07
  0.363571 -2.11906e-05
  0.383154 -9.03641e-06
  0.402736 1.35824e-05
  0.422319 -5.90757e-07
  0.441901 -6.3715e-06
  0.461484 -1.50395e-06
  0.481066 -1.0927e-05
  0.500648 3.04632e-06
  0.520231 -1.82128e-05
  0.539813 1.80909e-05
  0.559396 -1.00197e-05
  0.578978 1.36761e-05
   0.59856 -1.37396e-05
  0.618143 6.80438e-06
  0.637725 -1.01262e-05
  0.657308 7.86102e-06
   0.67689 -8.19481e-06
  0.696473 1.00686e-05
  0.716055 -1.07583e-05
  0.735637   1.03e-06
   0.75522 2.2966e-06
  0.774802 -2.09456e-06
  0.794385 -2.17065e-06
  0.813967 -8.52187e-06
  0.833549 9.14302e-06
  0.853132 -3.39468e-06
  0.872714 2.18232e-07
  0.892297 -1.16208e-06
  0.911879 3.33496e-06
  0.931462 -7.48743e-06
  0.951044 5.87716e-06
  0.970626 -3.88609e-06
  0.990209 2.45079e-06
   1.00979 -5.01743e-06
   1.02937 -1.76679e-06
   1.04896 1.05374e-05
   1.06854 -7.18132e-06
   1.08812 -2.85983e-06
    1.1077 3.04692e-07
   1.12729 6.43485e-06
   1.14687 -1.02721e-06
   1.16645 -1.91161e-06
   1.18603 5.56161e-06
   1.20562 -3.22768e-06
    1.2252 1.15377e-05
   1.24478 -5.05292e-06
   1.26436 -4.12352e-06
   1.28395 -7.7546e-06
   1.30353 1.81765e-05
   1.32311 -2.82561e-06
   1.34269 -3.30963e-06
   1.36228 4.63597e-06
   1.38186 1.29032e-05
   1.40144 2.04222e-06
   1.42102 -1.19095e-05
   1.44061 9.61606e-06
   1.46019 -9.13329e-06
   1.47977 6.65603e-06
   1.49935 3.30814e-06
   1.51894 7.95077e-06
   1.53852 -1.38329e-05
    1.5581 1.03603e-05
   1.57768 -1.60381e-05
   1.59727 3.42883e-05
   1.61685 -1.65733e-05
   1.63643 1.95546e-05
   1.65601 -3.8665e-05
    1.6756 5.89666e-05
   1.69518 -3.62135e-05
   1.71314 1.92548e-05
   1.72902 6.82728e-06
   1.74403 -9.56627e-06
   1.75821 1.46885e-05
    1.7716 -3.41974e-06
   1.78426 1.1722e-05
   1.79621 -1.76489e-06
   1.80751 -7.93543e-06
   1.81818 6.31979e-06
   1.82826 6.98375e-06
   1.83779 1.27838e-06
   1.84679 9.87045e-06
   1.85529 -3.32791e-06
   1.86332 3.69133e-06
   1.87091 9.21727e-06
   1.87808 3.75557e-06
   1.88485 8.32249e-06
   1.89125 7.96889e-06
   1.89729 3.68721e-06
     1.903 1.52759e-06
    1.9084 -7.59438e-07
    1.9135 5.08244e-07
   1.91831 -1.67901e-06
   1.92286 -1.8082e-06
   1.92716 -6.19935e-07
   1.93122 -3.51792e-07
   1.93506 -7.78576e-07
   1.93868 -5.56622e-08
   1.94211 8.12368e-07
   1.94534 9.88001e-07
    1.9484 -1.917e-07
   1.95129 -5.27604e-07
   1.95401 1.00356e-06
   1.95659 1.68736e-06
   1.95903 1.45877e-06
   1.96133 1.05541e-06
    1.9635 7.05013e-07
   1.96555 5.30358e-07
   1.96749 4.8492e-07
   1.96933 4.84545e-07
   1.97106 8.87205e-07
   1.97269 1.32562e-06
   1.97424 1.30794e-06
    1.9757  1.204e-06
   1.97708 1.19675e-06
   1.97838 1.19997e-06
   1.97961 1.08243e-06
   1.98077 9.4844e-07
   1.98187 8.62098e-07
   1.98291 8.26825e-07
   1.98389 7.42271e-07
   1.98482 6.28654e-07
   1.98569 5.25318e-07
   1.98652 4.57644e-07
    1.9873 4.03838e-07
   1.98804 3.34438e-07
   1.98874 2.49529e-07
    1.9894 1.86657e-07
   1.99002 1.38481e-07
   1.99061 1.10822e-07
   1.99116 6.38261e-08
   1.99169 1.9346e-08
   1.99218 1.77953e-08
   1.99265 1.53122e-08
    1.9931 2.32851e-08
   1.99355 2.39873e-08
   1.99399 9.13528e-09
   1.99444 2.91926e-09
   1.99488 -1.68678e-08
   1.99533 -4.57842e-08
   1.99577 -6.98027e-08
   1.99622 -9.61397e-08
   1.99666 -1.20839e-07
   1.99711 -1.44862e-07
   1.99755 -1.66114e-07
     1.998 -1.82022e-07
   1.99844 -1.88027e-07
   1.99889 -1.70288e-07
   1.99933 -1.08277e-07
   1.99978 -3.3821e-08
         2          0
