         0          0
 0.0002225 -4.44021e-12
 0.0006675 -1.62133e-10
 0.0011125 -7.41264e-10
 0.0015575 -1.94015e-09
 0.0020025 -3.81089e-09
 0.0024475 -6.26928e-09
 0.0028925 -9.11404e-09
 0.0033375 -1.2064e-08
 0.0037825 -1.48109e-08
 0.0042275 -1.70676e-08
 0.0046725 -1.86047e-08
 0.0051175 -1.92783e-08
 0.0055625 -1.90492e-08
 0.0060075 -1.79788e-08
 0.0064525 -1.62091e-08
 0.0068975 -1.39126e-08
 0.0073476 -1.12263e-08
0.00781612 -8.22617e-09
0.00831203 -5.00326e-09
0.00883694 -1.66188e-09
0.00939255 1.73048e-09
0.00998065 5.18541e-09
 0.0106031 8.75408e-09
  0.011262 1.25555e-08
 0.0119594 1.6774e-08
 0.0126977 2.15971e-08
  0.013479 2.71969e-08
 0.0143061 3.3693e-08
 0.0151815 4.11741e-08
 0.0161082 4.94796e-08
  0.017089 5.8261e-08
 0.0181271 6.72046e-08
  0.019226 7.61066e-08
 0.0203891 8.49867e-08
 0.0216203 9.39726e-08
 0.0229234 1.02975e-07
 0.0243028 1.11928e-07
 0.0257628 1.20738e-07
 0.0273082 1.2868e-07
  0.028944 1.35624e-07
 0.0306754 1.43408e-07
 0.0325081 1.54817e-07
 0.0344479 1.68056e-07
 0.0365012 1.79767e-07
 0.0386746 1.88432e-07
  0.040975 1.93564e-07
   0.04341 1.9535e-07
 0.0459873 1.9679e-07
 0.0487154 2.02146e-07
  0.051603 2.08088e-07
 0.0546595 2.0831e-07
 0.0578947 1.98527e-07
 0.0613191 1.76377e-07
 0.0649437  1.444e-07
 0.0687803 1.05902e-07
 0.0728413 5.99465e-08
 0.0771397 -2.89684e-09
 0.0816895 -7.50794e-08
 0.0865054 -1.2746e-07
 0.0916029 -1.54422e-07
 0.0969985 -1.65389e-07
   0.10271 -1.57107e-07
  0.108755 -1.51364e-07
  0.115153 -1.30908e-07
  0.121926 -9.25726e-08
  0.129095 -4.09858e-08
  0.136683 5.13556e-08
  0.144715 1.54463e-07
  0.153216 1.96234e-07
  0.162214 1.6442e-07
  0.171739 1.48034e-07
  0.181821 1.55662e-07
  0.192492 1.19542e-07
  0.203788 1.0394e-07
  0.215744 -4.23871e-08
  0.228399 -1.73425e-07
  0.241794 -3.66642e-07
  0.255972 -5.40455e-07
   0.27098 -9.4953e-07
  0.286865 -1.14539e-06
  0.304824 -1.29203e-06
  0.324407 -1.18531e-06
  0.343989 -1.45567e-06
  0.363571 -1.34415e-06
  0.383154 -1.53298e-06
  0.402736 -1.40425e-06
  0.422319 -1.37964e-06
  0.441901 -1.11278e-06
  0.461484 -1.14387e-06
  0.481066 -1.15355e-06
  0.500648 -1.25653e-06
  0.520231 -1.30097e-06
  0.539813 -1.39614e-06
  0.559396 -1.40428e-06
  0.578978 -1.44962e-06
   0.59856 -1.44325e-06
  0.618143 -1.48684e-06
  0.637725 -1.3874e-06
  0.657308 -1.4683e-06
   0.67689 -1.43153e-06
  0.696473 -1.54321e-06
  0.716055 -1.55158e-06
  0.735637 -1.56436e-06
   0.75522 -1.60762e-06
  0.774802 -1.8483e-06
  0.794385 -1.89796e-06
  0.813967 -2.00616e-06
  0.833549 -1.93514e-06
  0.853132 -1.9384e-06
  0.872714 -2.01553e-06
  0.892297 -1.94432e-06
  0.911879 -1.90461e-06
  0.931462 -1.8357e-06
  0.951044 -1.88833e-06
  0.970626 -1.85758e-06
  0.990209 -1.72095e-06
   1.00979 -1.62434e-06
   1.02937 -1.52663e-06
   1.04896 -1.4111e-06
   1.06854 -1.33844e-06
   1.08812 -1.31805e-06
    1.1077 -1.26311e-06
   1.12729 -1.20112e-06
   1.14687 -1.10783e-06
   1.16645 -1.03472e-06
   1.18603 -9.96034e-07
   1.20562 -1.00524e-06
    1.2252 -1.12974e-06
   1.24478 -1.22759e-06
   1.26436 -1.26873e-06
   1.28395 -1.36354e-06
   1.30353 -1.42555e-06
   1.32311 -1.48553e-06
   1.34269 -1.55815e-06
   1.36228 -1.42675e-06
   1.38186 -1.45735e-06
   1.40144 -1.48374e-06
   1.42102 -1.31192e-06
   1.44061 -1.2823e-06
   1.46019 -1.43102e-06
   1.47977 -1.38926e-06
   1.49935 -1.6481e-06
   1.51894 -1.37815e-06
   1.53852 -1.47186e-06
    1.5581 -1.36654e-06
   1.57768 -1.38263e-06
   1.59727 -1.09376e-06
   1.61685 -9.08643e-07
   1.63643 -5.89617e-07
   1.65601 -4.4311e-07
    1.6756 -3.93459e-07
   1.69518 -8.61977e-08
   1.71314 -8.14899e-08
   1.72902 5.80228e-08
   1.74403 6.12754e-08
   1.75821 -1.55754e-08
    1.7716 -2.10628e-07
   1.78426 -2.01492e-07
   1.79621 -1.535e-07
   1.80751 1.32814e-08
   1.81818 8.12964e-08
   1.82826 1.27618e-07
   1.83779 1.44646e-07
   1.84679  1.698e-07
   1.85529 1.65502e-07
   1.86332 1.48234e-07
   1.87091 1.85667e-07
   1.87808 2.55305e-07
   1.88485 3.26426e-07
   1.89125 3.54946e-07
   1.89729 3.65083e-07
     1.903 3.64725e-07
    1.9084 3.58372e-07
    1.9135 3.3905e-07
   1.91831 2.94658e-07
   1.92286 2.3224e-07
   1.92716 1.60126e-07
   1.93122 8.98648e-08
   1.93506 3.4479e-08
   1.93868 5.07398e-09
   1.94211 -1.35273e-08
   1.94534 -3.30022e-08
    1.9484 -5.00059e-08
   1.95129 -6.73102e-08
   1.95401 -8.90901e-08
   1.95659 -1.14598e-07
   1.95903 -1.40914e-07
   1.96133 -1.63099e-07
    1.9635 -1.77015e-07
   1.96555 -1.81638e-07
   1.96749 -1.79009e-07
   1.96933 -1.70838e-07
   1.97106 -1.57498e-07
   1.97269 -1.39517e-07
   1.97424 -1.16117e-07
    1.9757 -8.686e-08
   1.97708 -5.23191e-08
   1.97838 -1.4112e-08
   1.97961 2.56147e-08
   1.98077 6.53054e-08
   1.98187 1.0371e-07
   1.98291 1.39531e-07
   1.98389 1.71868e-07
   1.98482 2.00103e-07
   1.98569 2.23828e-07
   1.98652 2.42778e-07
    1.9873 2.56685e-07
   1.98804 2.65343e-07
   1.98874 2.68725e-07
    1.9894 2.67041e-07
   1.99002 2.60747e-07
   1.99061 2.50499e-07
   1.99116 2.37063e-07
   1.99169 2.21254e-07
   1.99218 2.03882e-07
   1.99265 1.85678e-07
    1.9931 1.66956e-07
   1.99355 1.4766e-07
   1.99399 1.28021e-07
   1.99444 1.08511e-07
   1.99488 8.96101e-08
   1.99533 7.18023e-08
   1.99577 5.5534e-08
   1.99622 4.11789e-08
   1.99666 2.90139e-08
   1.99711 1.9186e-08
   1.99755 1.16908e-08
     1.998 6.37199e-09
   1.99844 2.94523e-09
   1.99889 1.03468e-09
   1.99933 2.0892e-10
   1.99978 3.72362e-12
         2          0
