         0          0
 0.0002225 3.18284e-08
 0.0006675 1.02175e-07
 0.0011125 1.61164e-07
 0.0015575 1.7834e-07
 0.0020025 1.72989e-07
 0.0024475 1.58303e-07
 0.0028925 1.3817e-07
 0.0033375 1.14843e-07
 0.0037825 9.04094e-08
 0.0042275 6.63937e-08
 0.0046725 4.37365e-08
 0.0051175 2.29752e-08
 0.0055625 4.30812e-09
 0.0060075 -1.14237e-08
 0.0064525 -2.00561e-08
 0.0068975 -1.54166e-08
 0.0073476 -6.71886e-09
0.00781612 -1.22821e-08
0.00831203 -3.28009e-08
0.00883694 -6.1371e-08
0.00939255 -9.43385e-08
0.00998065 -1.33025e-07
 0.0106031 -1.79108e-07
  0.011262 -2.33307e-07
 0.0119594 -2.95616e-07
 0.0126977 -3.66154e-07
  0.013479 -4.44566e-07
 0.0143061 -5.29713e-07
 0.0151815 -6.19875e-07
 0.0161082 -7.11912e-07
  0.017089 -8.0315e-07
 0.0181271 -8.90622e-07
  0.019226 -9.69416e-07
 0.0203891 -1.03647e-06
 0.0216203 -1.08933e-06
 0.0229234 -1.12465e-06
 0.0243028 -1.13986e-06
 0.0257628 -1.13441e-06
 0.0273082 -1.11095e-06
  0.028944 -1.07081e-06
 0.0306754 -1.01051e-06
 0.0325081 -9.32023e-07
 0.0344479 -8.37782e-07
 0.0365012 -7.23752e-07
 0.0386746 -5.86523e-07
  0.040975 -4.25165e-07
   0.04341 -2.54192e-07
 0.0459873 -1.06462e-07
 0.0487154 7.48929e-09
  0.051603 8.5498e-08
 0.0546595 1.1753e-07
 0.0578947 9.27449e-08
 0.0613191 9.22081e-10
 0.0649437 -1.41843e-07
 0.0687803 -3.49793e-07
 0.0728413 -6.35907e-07
 0.0771397 -9.30172e-07
 0.0816895 -1.24721e-06
 0.0865054 -1.55537e-06
 0.0916029 -1.85664e-06
 0.0969985 -2.14141e-06
   0.10271 -2.49616e-06
  0.108755 -2.9047e-06
  0.115153 -3.20294e-06
  0.121926 -3.40541e-06
  0.129095 -3.68291e-06
  0.136683 -3.82038e-06
  0.144715 -3.75549e-06
  0.153216 -3.95625e-06
  0.162214 -4.14187e-06
  0.171739 -4.3579e-06
  0.181821 -4.04772e-06
  0.192492 -4.8782e-06
  0.203788 -2.81885e-06
  0.215744 -4.61237e-06
  0.228399 -1.51872e-06
  0.241794 -7.7817e-06
  0.255972 3.8736e-06
   0.27098 -1.41495e-05
  0.286865 5.65558e-06
  0.304824 1.80141e-06
  0.324407 -1.60574e-05
  0.343989 6.97444e-06
  0.363571 -9.89433e-06
  0.383154 3.61574e-06
  0.402736 -6.24253e-06
  0.422319 2.01437e-07
  0.441901 -2.86314e-06
  0.461484 -1.42114e-06
  0.481066 -2.08351e-06
  0.500648 -1.76902e-06
  0.520231 -1.66681e-06
  0.539813 -1.10628e-06
  0.559396 -1.93266e-06
  0.578978 -4.9352e-07
   0.59856 -2.36369e-06
  0.618143 -2.71882e-07
  0.637725 -1.56224e-06
  0.657308 -9.61509e-07
   0.67689 -1.96215e-06
  0.696473 -7.79118e-07
  0.716055 -1.62716e-06
  0.735637 -6.54844e-07
   0.75522 -1.02622e-06
  0.774802 -3.58645e-07
  0.794385 -1.08772e-06
  0.813967 -9.63366e-07
  0.833549 -6.46587e-07
  0.853132 -7.25841e-07
  0.872714 -3.653e-07
  0.892297 -2.28543e-07
  0.911879 -7.35033e-07
  0.931462 -3.18861e-07
  0.951044 -3.40363e-07
  0.970626 -1.29462e-07
  0.990209 -4.3336e-07
   1.00979 3.26932e-07
   1.02937 4.16538e-08
   1.04896 2.32852e-07
   1.06854 5.46679e-07
   1.08812 2.18707e-07
    1.1077 1.15247e-07
   1.12729 7.71866e-07
   1.14687 2.55776e-07
   1.16645 1.0624e-06
   1.18603 2.22684e-07
   1.20562 1.64057e-06
    1.2252 4.9239e-07
   1.24478 1.45982e-06
   1.26436  1.152e-06
   1.28395 1.52302e-06
   1.30353 2.99336e-07
   1.32311 1.87044e-06
   1.34269 2.45737e-07
   1.36228 2.36418e-06
   1.38186 8.99917e-08
   1.40144 2.56172e-06
   1.42102 2.71909e-07
   1.44061 3.11583e-06
   1.46019 6.71701e-08
   1.47977 2.29039e-06
   1.49935 1.27529e-06
   1.51894 1.54621e-06
   1.53852 2.09712e-06
    1.5581 3.13993e-06
   1.57768 -3.74252e-07
   1.59727 6.31729e-06
   1.61685 -3.21059e-06
   1.63643 9.57774e-06
   1.65601 -6.80139e-06
    1.6756 1.71627e-05
   1.69518 -3.92375e-06
   1.71314 -4.34576e-06
   1.72902 1.43136e-05
   1.74403 -3.63038e-06
   1.75821 7.32057e-06
    1.7716 1.77196e-06
   1.78426 4.72601e-06
   1.79621 3.19133e-06
   1.80751 4.24888e-06
   1.81818 3.81685e-06
   1.82826 4.27502e-06
   1.83779 4.08328e-06
   1.84679 3.99872e-06
   1.85529 3.99561e-06
   1.86332 3.98533e-06
   1.87091 3.75936e-06
   1.87808 3.42405e-06
   1.88485 2.95694e-06
   1.89125 2.69238e-06
   1.89729  2.422e-06
     1.903 2.16104e-06
    1.9084 1.88073e-06
    1.9135 1.61339e-06
   1.91831 1.2574e-06
   1.92286 8.58018e-07
   1.92716 5.61164e-07
   1.93122 3.54605e-07
   1.93506 1.66657e-07
   1.93868 1.19557e-08
   1.94211 -9.17045e-08
   1.94534 -1.42066e-07
    1.9484 -1.32075e-07
   1.95129 -6.00367e-08
   1.95401 6.91744e-08
   1.95659 2.39194e-07
   1.95903 4.17272e-07
   1.96133 5.80967e-07
    1.9635 7.25422e-07
   1.96555 8.48821e-07
   1.96749 9.50548e-07
   1.96933 1.0285e-06
   1.97106 1.08439e-06
   1.97269 1.12189e-06
   1.97424 1.14264e-06
    1.9757 1.14641e-06
   1.97708 1.13125e-06
   1.97838 1.09697e-06
   1.97961 1.04478e-06
   1.98077 9.76395e-07
   1.98187 8.95995e-07
   1.98291 8.0775e-07
   1.98389 7.15135e-07
   1.98482 6.21703e-07
   1.98569 5.30836e-07
   1.98652 4.45184e-07
    1.9873 3.66597e-07
   1.98804 2.9602e-07
   1.98874 2.33623e-07
    1.9894 1.79469e-07
   1.99002 1.33369e-07
   1.99061 9.45442e-08
   1.99116 6.15228e-08
   1.99169 3.29028e-08
   1.99218 1.23101e-08
   1.99265 6.76608e-09
    1.9931 1.55427e-08
   1.99355 2.01856e-08
   1.99399 1.15466e-08
   1.99444 -4.2613e-09
   1.99488 -2.30987e-08
   1.99533 -4.3973e-08
   1.99577 -6.67174e-08
   1.99622 -9.08396e-08
   1.99666 -1.15395e-07
   1.99711 -1.38855e-07
   1.99755 -1.5909e-07
     1.998 -1.73827e-07
   1.99844 -1.79187e-07
   1.99889 -1.61912e-07
   1.99933 -1.02638e-07
   1.99978 -3.19696e-08
         2          0
