         0          0
 0.0002225 -4.45142e-12
 0.0006675 -1.61419e-10
 0.0011125 -7.37297e-10
 0.0015575 -1.92854e-09
 0.0020025 -3.78605e-09
 0.0024475 -6.22489e-09
 0.0028925 -9.04351e-09
 0.0033375 -1.19608e-08
 0.0037825 -1.46693e-08
 0.0042275 -1.68829e-08
 0.0046725 -1.83735e-08
 0.0051175 -1.89994e-08
 0.0055625 -1.87233e-08
 0.0060075 -1.76093e-08
 0.0064525 -1.58018e-08
 0.0068975 -1.34759e-08
 0.0073476 -1.07702e-08
0.00781612 -7.76228e-09
0.00831203 -4.54647e-09
0.00883694 -1.23092e-09
0.00939255 2.11342e-09
0.00998065 5.49645e-09
 0.0106031 8.96936e-09
  0.011262 1.26527e-08
 0.0119594 1.67346e-08
 0.0126977 2.14086e-08
  0.013479 2.68532e-08
 0.0143061 3.31946e-08
 0.0151815 4.05262e-08
 0.0161082 4.86879e-08
  0.017089 5.73329e-08
 0.0181271 6.61464e-08
  0.019226 7.4923e-08
 0.0203891 8.36771e-08
 0.0216203 9.25242e-08
 0.0229234 1.01379e-07
 0.0243028 1.10212e-07
 0.0257628 1.19006e-07
 0.0273082 1.27166e-07
  0.028944 1.34701e-07
 0.0306754 1.43541e-07
 0.0325081 1.56486e-07
 0.0344479 1.71747e-07
 0.0365012 1.85902e-07
 0.0386746 1.97256e-07
  0.040975 2.05109e-07
   0.04341 2.09381e-07
 0.0459873 2.1266e-07
 0.0487154 2.18736e-07
  0.051603 2.23707e-07
 0.0546595 2.20468e-07
 0.0578947 2.03981e-07
 0.0613191 1.71486e-07
 0.0649437 1.25676e-07
 0.0687803 7.01105e-08
 0.0728413 3.81654e-09
 0.0771397 -8.29573e-08
 0.0816895 -1.83485e-07
 0.0865054 -2.70213e-07
 0.0916029 -3.37663e-07
 0.0969985 -3.9255e-07
   0.10271 -4.28076e-07
  0.108755 -4.65412e-07
  0.115153 -4.89065e-07
  0.121926 -4.94179e-07
  0.129095 -4.78585e-07
  0.136683 -4.10206e-07
  0.144715 -3.19806e-07
  0.153216 -2.77396e-07
  0.162214 -2.88359e-07
  0.171739 -2.55079e-07
  0.181821 -1.75384e-07
  0.192492 -1.30305e-07
  0.203788 -6.79895e-08
  0.215744 -1.5757e-07
  0.228399 -2.43001e-07
  0.241794 -3.33771e-07
  0.255972 -3.89644e-07
   0.27098 -6.42918e-07
  0.286865 -6.6315e-07
  0.304824 -6.46707e-07
  0.324407 -4.09737e-07
  0.343989 -5.93089e-07
  0.363571 -3.45269e-07
  0.383154 -4.58024e-07
  0.402736 -2.34512e-07
  0.422319 -1.83409e-07
  0.441901 1.19431e-07
  0.461484 1.17267e-07
  0.481066 4.19137e-08
  0.500648 -9.31575e-08
  0.520231 -1.9526e-07
  0.539813 -3.59728e-07
  0.559396 -3.9412e-07
  0.578978 -4.16625e-07
   0.59856 -3.50451e-07
  0.618143 -3.61286e-07
  0.637725 -2.69643e-07
  0.657308 -3.79347e-07
   0.67689 -3.75682e-07
  0.696473 -5.13794e-07
  0.716055 -5.38016e-07
  0.735637 -5.79225e-07
   0.75522 -6.4301e-07
  0.774802 -8.7807e-07
  0.794385 -9.09472e-07
  0.813967 -1.01302e-06
  0.833549 -9.52882e-07
  0.853132 -9.77424e-07
  0.872714 -1.07476e-06
  0.892297 -1.02153e-06
  0.911879 -1.00008e-06
  0.931462 -9.59384e-07
  0.951044 -1.03071e-06
  0.970626 -1.0078e-06
  0.990209 -9.01882e-07
   1.00979 -8.56028e-07
   1.02937 -8.14538e-07
   1.04896 -7.49214e-07
   1.06854 -7.27094e-07
   1.08812 -7.63581e-07
    1.1077 -7.6118e-07
   1.12729 -7.39465e-07
   1.14687 -6.68843e-07
   1.16645 -6.15734e-07
   1.18603 -6.17607e-07
   1.20562 -6.78968e-07
    1.2252 -8.74252e-07
   1.24478 -1.04603e-06
   1.26436 -1.19161e-06
   1.28395 -1.41772e-06
   1.30353 -1.59153e-06
   1.32311 -1.72229e-06
   1.34269 -1.83481e-06
   1.36228 -1.69508e-06
   1.38186 -1.75321e-06
   1.40144 -1.86095e-06
   1.42102 -1.78564e-06
   1.44061 -1.78949e-06
   1.46019 -1.96499e-06
   1.47977 -1.93546e-06
   1.49935 -2.18881e-06
   1.51894 -1.86912e-06
   1.53852 -1.86858e-06
    1.5581 -1.65871e-06
   1.57768 -1.61927e-06
   1.59727 -1.33709e-06
   1.61685 -1.21368e-06
   1.63643 -8.90107e-07
   1.65601 -7.39125e-07
    1.6756 -5.44516e-07
   1.69518 -1.47297e-07
   1.71314 -6.95792e-08
   1.72902 1.36148e-07
   1.74403 1.61237e-07
   1.75821 1.55317e-07
    1.7716 5.8647e-08
   1.78426 1.5483e-07
   1.79621 2.60668e-07
   1.80751 4.6519e-07
   1.81818 5.49941e-07
   1.82826 5.96309e-07
   1.83779 5.87663e-07
   1.84679 5.67776e-07
   1.85529 5.06957e-07
   1.86332 4.30564e-07
   1.87091 4.16985e-07
   1.87808 4.49096e-07
   1.88485 4.91291e-07
   1.89125 4.90675e-07
   1.89729 4.70746e-07
     1.903 4.42356e-07
    1.9084 4.10365e-07
    1.9135 3.68394e-07
   1.91831 3.04373e-07
   1.92286 2.25097e-07
   1.92716 1.39343e-07
   1.93122 5.94265e-08
   1.93506 -1.90043e-09
   1.93868 -3.40943e-08
   1.94211 -5.25485e-08
   1.94534 -6.94617e-08
    1.9484 -8.26215e-08
   1.95129 -9.57135e-08
   1.95401 -1.1324e-07
   1.95659 -1.34576e-07
   1.95903 -1.56967e-07
   1.96133 -1.75611e-07
    1.9635 -1.86385e-07
   1.96555 -1.88218e-07
   1.96749 -1.832e-07
   1.96933 -1.73186e-07
   1.97106 -1.58672e-07
   1.97269 -1.40126e-07
   1.97424 -1.16584e-07
    1.9757 -8.7392e-08
   1.97708 -5.2957e-08
   1.97838 -1.48069e-08
   1.97961 2.49345e-08
   1.98077 6.46936e-08
   1.98187 1.0319e-07
   1.98291 1.39106e-07
   1.98389 1.71531e-07
   1.98482 1.99838e-07
   1.98569 2.23615e-07
   1.98652 2.42597e-07
    1.9873 2.56517e-07
   1.98804 2.6517e-07
   1.98874 2.6853e-07
    1.9894 2.66814e-07
   1.99002 2.60482e-07
   1.99061 2.50197e-07
   1.99116 2.36728e-07
   1.99169 2.20892e-07
   1.99218 2.03502e-07
   1.99265 1.85291e-07
    1.9931 1.6657e-07
   1.99355 1.47285e-07
   1.99399 1.27666e-07
   1.99444 1.08184e-07
   1.99488 8.93181e-08
   1.99533 7.15506e-08
   1.99577 5.53252e-08
   1.99622 4.10133e-08
   1.99666 2.88892e-08
   1.99711 1.9098e-08
   1.99755 1.16335e-08
     1.998 6.33849e-09
   1.99844 2.92857e-09
   1.99889 1.02834e-09
   1.99933 2.07518e-10
   1.99978 3.68676e-12
         2          0
