         0 -1.34431e-18
 0.0002225 -4.6117e-17
 0.0006675 -8.17307e-17
 0.0011125 -3.50331e-17
 0.0015575 -3.48455e-17
 0.0020025 1.12665e-17
 0.0024475 -6.07381e-17
 0.0028925 1.14591e-16
 0.0033375 -5.25979e-17
 0.0037825 -1.54903e-16
 0.0042275 6.0556e-17
 0.0046725 2.90794e-16
 0.0051175 5.09686e-16
 0.0055625 -1.16791e-16
 0.0060075 8.38396e-17
 0.0064525 -2.03952e-16
 0.0068975 -6.02123e-16
 0.0073476 -1.28715e-15
0.00781612 -5.49099e-16
0.00831203 6.07141e-16
0.00883694 1.10281e-15
0.00939255 -4.24771e-16
0.00998065 -6.99849e-16
 0.0106031 2.23759e-16
  0.011262 -3.48299e-16
 0.0119594 -4.23976e-16
 0.0126977 -1.08962e-16
  0.013479 3.02798e-16
 0.0143061 -5.15881e-16
 0.0151815 -6.87539e-16
 0.0161082 -4.99587e-16
  0.017089 -8.35123e-16
 0.0181271 -8.65858e-16
  0.019226 5.10951e-16
 0.0203891 -1.23748e-16
 0.0216203 -4.96228e-16
 0.0229234 -4.4122e-16
 0.0243028 2.3205e-16
 0.0257628 -3.40363e-16
 0.0273082 -5.43474e-16
  0.028944 -4.68769e-16
 0.0306754 2.41807e-17
 0.0325081 -1.77691e-16
 0.0344479 -3.75329e-16
 0.0365012 -3.69782e-16
 0.0386746 -4.15104e-16
  0.040975 3.23823e-16
   0.04341 -5.98688e-17
 0.0459873 -2.20121e-16
 0.0487154 4.08853e-16
  0.051603 5.11206e-16
 0.0546595 5.94318e-16
 0.0578947 8.19442e-17
 0.0613191 -5.63305e-17
 0.0649437 -1.98405e-16
 0.0687803 2.29876e-16
 0.0728413 -4.55666e-16
 0.0771397 -2.76503e-16
 0.0816895 2.78798e-16
 0.0865054 -2.6621e-16
 0.0916029 -4.91109e-16
 0.0969985 4.25482e-17
   0.10271 -1.58064e-16
  0.108755  9.865e-17
  0.115153 5.58154e-17
  0.121926 2.74891e-18
  0.129095 1.91267e-16
  0.136683 -1.51683e-16
  0.144715 -1.09579e-16
  0.153216 -3.13283e-17
  0.162214 -2.1976e-16
  0.171739 -5.79059e-17
  0.181821 2.69154e-16
  0.192492 3.38532e-16
  0.203788 2.52401e-16
  0.215744 -7.38248e-17
  0.228399 1.39291e-16
  0.241794 -1.25595e-16
  0.255972 -1.59526e-16
   0.27098 1.33219e-16
  0.286865 2.65883e-16
  0.304824 1.83081e-16
  0.324407 1.02095e-16
  0.343989 -5.62947e-17
  0.363571 7.92713e-17
  0.383154 -1.56984e-16
  0.402736 1.21721e-16
  0.422319 -6.66156e-17
  0.441901 4.20197e-17
  0.461484 -1.30195e-16
  0.481066 1.43601e-16
  0.500648 -1.21458e-17
  0.520231 -1.65636e-16
  0.539813 9.57537e-17
  0.559396 -1.4455e-16
  0.578978 2.16186e-16
   0.59856 -1.63258e-17
  0.618143 3.93346e-17
  0.637725 2.20126e-16
  0.657308 1.62286e-16
   0.67689 1.14786e-16
  0.696473 1.20107e-16
  0.716055 1.0649e-16
  0.735637 -1.59206e-18
   0.75522 -4.1907e-17
  0.774802 -2.96074e-17
  0.794385 1.3541e-16
  0.813967 1.43469e-17
  0.833549 -1.1291e-18
  0.853132 -1.22657e-16
  0.872714 5.11952e-17
  0.892297 3.8598e-17
  0.911879 -1.50258e-17
  0.931462 -7.08151e-17
  0.951044 -1.58156e-16
  0.970626 -3.23902e-17
  0.990209 -2.89574e-17
   1.00979 2.2285e-17
   1.02937 -3.75433e-17
   1.04896 -4.82422e-17
   1.06854 5.18308e-18
   1.08812 1.06649e-16
    1.1077 -6.04128e-18
   1.12729 -4.36486e-17
   1.14687 -9.56626e-17
   1.16645 6.32808e-17
   1.18603 8.33782e-17
   1.20562 9.81659e-18
    1.2252 -7.09877e-17
   1.24478 5.74207e-17
   1.26436 -1.22413e-17
   1.28395 2.5499e-18
   1.30353 -1.01419e-16
   1.32311 2.47058e-16
   1.34269 -1.57174e-16
   1.36228 1.03086e-16
   1.38186 -1.29125e-16
   1.40144 -9.76261e-17
   1.42102 1.33626e-17
   1.44061 6.95599e-17
   1.46019 -1.39311e-16
   1.47977 -6.11267e-17
   1.49935 1.65062e-16
   1.51894 7.80342e-17
   1.53852 -2.02928e-16
    1.5581 -5.56077e-17
   1.57768 1.30936e-16
   1.59727 -4.4349e-17
   1.61685 -5.19196e-17
   1.63643 -1.60318e-16
   1.65601 1.55845e-16
    1.6756 -2.28704e-16
   1.69518 5.60146e-17
   1.71314 -1.22879e-16
   1.72902 -2.60051e-16
   1.74403 -1.07383e-16
   1.75821 -5.54182e-17
    1.7716 3.35099e-17
   1.78426 1.17388e-16
   1.79621 4.16889e-17
   1.80751 8.05844e-17
   1.81818 9.88298e-17
   1.82826 9.91984e-18
   1.83779 -2.06815e-16
   1.84679 3.53788e-16
   1.85529 2.35621e-16
   1.86332 -5.71132e-17
   1.87091 -8.61988e-17
   1.87808 4.39093e-17
   1.88485 -1.64135e-17
   1.89125 1.12612e-16
   1.89729 -2.48628e-16
     1.903 -8.85692e-17
    1.9084 4.32578e-16
    1.9135 1.49951e-16
   1.91831 -4.01776e-16
   1.92286 -2.47891e-16
   1.92716 -2.26565e-16
   1.93122 -4.81886e-16
   1.93506 9.92499e-16
   1.93868 -5.81402e-17
   1.94211 5.73142e-17
   1.94534 1.23133e-16
    1.9484 -7.3118e-16
   1.95129 -1.93601e-16
   1.95401 1.04031e-15
   1.95659 -1.01492e-16
   1.95903 2.12019e-16
   1.96133 2.31637e-17
    1.9635 -5.59419e-16
   1.96555 5.43012e-16
   1.96749 4.33413e-16
   1.96933 4.9857e-16
   1.97106 -9.61182e-16
   1.97269 1.87216e-15
   1.97424 -1.95997e-15
    1.9757 1.88641e-15
   1.97708 1.49894e-15
   1.97838 -2.42061e-15
   1.97961 5.88441e-15
   1.98077 -2.11088e-15
   1.98187 1.24641e-15
   1.98291 -1.01888e-15
   1.98389 -2.95099e-15
   1.98482 -4.26283e-15
   1.98569 3.12109e-15
   1.98652 2.42899e-15
    1.9873 -3.5666e-15
   1.98804 3.9771e-15
   1.98874 -5.30632e-15
    1.9894 5.31466e-15
   1.99002 4.93338e-15
   1.99061 -2.44814e-15
   1.99116 -1.02502e-15
   1.99169 -4.29873e-15
   1.99218 9.84969e-15
   1.99265 -3.8434e-15
    1.9931 5.50791e-15
   1.99355 9.95648e-16
   1.99399 3.21591e-15
   1.99444 -3.67365e-15
   1.99488 2.14158e-16
   1.99533 -2.46622e-15
   1.99577 4.68435e-15
   1.99622 -2.94984e-15
   1.99666 8.32778e-16
   1.99711 8.43725e-16
   1.99755 6.14202e-16
     1.998 3.17528e-16
   1.99844 -1.31307e-15
   1.99889 -4.46837e-16
   1.99933 1.04233e-15
   1.99978 -5.1999e-16
         2 -5.67274e-16
