         0 1.02932e-19
 0.0002225  9.359e-19
 0.0006675 1.98586e-18
 0.0011125 -3.77458e-18
 0.0015575 -4.5757e-18
 0.0020025 -2.31483e-18
 0.0024475 -5.95184e-18
 0.0028925 -1.02353e-17
 0.0033375 -9.86945e-19
 0.0037825 3.81788e-18
 0.0042275 7.20858e-18
 0.0046725 -6.3527e-18
 0.0051175 -1.56836e-17
 0.0055625 1.95431e-17
 0.0060075 -1.61119e-17
 0.0064525 7.1369e-18
 0.0068975 3.37535e-17
 0.0073476 3.84418e-17
0.00781612 -2.4555e-17
0.00831203 -1.80384e-17
0.00883694 9.73207e-18
0.00939255 -3.3498e-17
0.00998065 -1.1734e-16
 0.0106031 -3.66424e-17
  0.011262 -4.01377e-17
 0.0119594 -3.80813e-18
 0.0126977 -4.90907e-17
  0.013479 -7.65123e-17
 0.0143061 -9.86688e-18
 0.0151815 -5.61084e-18
 0.0161082 4.59216e-17
  0.017089 -3.95149e-17
 0.0181271 -1.58785e-17
  0.019226 -4.25427e-17
 0.0203891 -3.84821e-17
 0.0216203 8.11247e-18
 0.0229234 9.16737e-18
 0.0243028 -2.68985e-17
 0.0257628 -5.88773e-17
 0.0273082 8.29833e-17
  0.028944 4.24417e-19
 0.0306754 5.71003e-17
 0.0325081 -3.50862e-18
 0.0344479 -2.89256e-17
 0.0365012 5.58519e-18
 0.0386746 4.00056e-17
  0.040975 1.24238e-17
   0.04341 5.16311e-17
 0.0459873 2.82551e-17
 0.0487154 1.67684e-16
  0.051603 -4.77868e-18
 0.0546595 2.2777e-17
 0.0578947 5.49823e-17
 0.0613191 3.06706e-17
 0.0649437 1.34835e-17
 0.0687803 -8.31071e-19
 0.0728413 2.56445e-17
 0.0771397 6.39092e-17
 0.0816895 3.22668e-17
 0.0865054 2.63951e-17
 0.0916029 1.04637e-17
 0.0969985 6.05119e-17
   0.10271 -3.24393e-19
  0.108755 4.7473e-17
  0.115153 1.01005e-16
  0.121926 2.3093e-17
  0.129095 -3.51594e-19
  0.136683 -1.39501e-17
  0.144715 5.17095e-17
  0.153216 -5.92415e-18
  0.162214 -1.70993e-17
  0.171739 1.9665e-17
  0.181821 -2.35454e-18
  0.192492 3.94582e-17
  0.203788 2.41175e-18
  0.215744 -5.68209e-18
  0.228399 -6.93445e-18
  0.241794 -2.45257e-17
  0.255972 3.80779e-17
   0.27098 -1.86826e-17
  0.286865 8.55337e-18
  0.304824 4.5057e-18
  0.324407 -6.66844e-17
  0.343989 -2.17153e-18
  0.363571 4.25013e-17
  0.383154 5.53016e-18
  0.402736 -5.03215e-17
  0.422319 -9.55382e-18
  0.441901 1.71929e-17
  0.461484 -2.32241e-17
  0.481066 -2.1616e-18
  0.500648 1.00761e-16
  0.520231 -1.86186e-17
  0.539813 2.36832e-17
  0.559396 4.78712e-17
  0.578978 5.19695e-18
   0.59856 -1.28234e-16
  0.618143 1.6257e-17
  0.637725 5.39029e-17
  0.657308 5.21871e-17
   0.67689 -7.80168e-18
  0.696473 8.91243e-17
  0.716055 5.9761e-17
  0.735637 -6.34667e-17
   0.75522 -5.37048e-17
  0.774802 -1.38565e-16
  0.794385 3.86298e-17
  0.813967 -6.96695e-17
  0.833549 4.72318e-17
  0.853132 -4.0303e-17
  0.872714 8.84566e-17
  0.892297 1.27186e-17
  0.911879 -1.4118e-17
  0.931462 -1.28786e-17
  0.951044 -5.47485e-17
  0.970626 -5.37134e-17
  0.990209 -3.63222e-17
   1.00979 -9.60091e-18
   1.02937 2.12622e-17
   1.04896 1.69552e-17
   1.06854 5.47096e-18
   1.08812 4.43198e-17
    1.1077 2.25402e-17
   1.12729 -2.16272e-17
   1.14687 -1.83036e-17
   1.16645 6.04787e-17
   1.18603 5.29856e-17
   1.20562 -2.0912e-17
    1.2252 -1.6865e-18
   1.24478 1.93576e-17
   1.26436 -2.29946e-17
   1.28395 1.97875e-18
   1.30353 9.29598e-17
   1.32311 1.2794e-17
   1.34269 -1.30656e-17
   1.36228 4.90324e-17
   1.38186 2.68098e-18
   1.40144 5.10108e-17
   1.42102 8.49411e-18
   1.44061 -2.86173e-17
   1.46019 -1.74891e-17
   1.47977 -4.02258e-17
   1.49935 -8.44727e-18
   1.51894 -8.17416e-18
   1.53852 1.0517e-17
    1.5581 2.04148e-17
   1.57768 -1.10953e-19
   1.59727 -4.06881e-17
   1.61685 -2.69208e-17
   1.63643 1.61284e-17
   1.65601 1.77641e-17
    1.6756 1.52988e-17
   1.69518 1.62186e-18
   1.71314 -3.5447e-17
   1.72902 -5.37412e-17
   1.74403 -2.71343e-17
   1.75821 -2.01864e-17
    1.7716 -6.52079e-18
   1.78426 -9.34373e-17
   1.79621 -2.13319e-17
   1.80751 9.23775e-19
   1.81818 -3.97129e-17
   1.82826 -1.28841e-18
   1.83779 7.01394e-18
   1.84679 4.13142e-18
   1.85529 -1.03205e-17
   1.86332 2.88538e-17
   1.87091 2.19794e-17
   1.87808 4.15367e-17
   1.88485 -1.65367e-17
   1.89125 4.4767e-18
   1.89729 1.56078e-17
     1.903 4.57561e-17
    1.9084 3.55863e-17
    1.9135 -2.24649e-17
   1.91831 -7.26051e-18
   1.92286 8.51784e-18
   1.92716 3.33524e-17
   1.93122 1.20589e-17
   1.93506 2.99008e-17
   1.93868 1.56706e-17
   1.94211 4.35928e-17
   1.94534 2.74566e-17
    1.9484 3.57629e-17
   1.95129  4.188e-17
   1.95401 3.90409e-17
   1.95659 -5.46257e-18
   1.95903 -1.17165e-17
   1.96133 -3.89189e-17
    1.9635 -3.41802e-17
   1.96555 2.76361e-17
   1.96749 6.01309e-17
   1.96933 -5.10146e-17
   1.97106 -7.42212e-18
   1.97269 9.48325e-18
   1.97424 2.86242e-17
    1.9757 -7.52749e-17
   1.97708 3.24761e-17
   1.97838 6.60796e-17
   1.97961 -1.6008e-17
   1.98077 -9.17745e-17
   1.98187 -2.44678e-16
   1.98291 9.7729e-17
   1.98389 -3.4755e-17
   1.98482 -7.65796e-17
   1.98569 -3.47064e-17
   1.98652 -7.39825e-17
    1.9873 -5.51781e-18
   1.98804 -2.17215e-18
   1.98874 -1.45278e-16
    1.9894 -1.18315e-16
   1.99002 -8.44856e-17
   1.99061 2.71561e-16
   1.99116 -3.63134e-16
   1.99169 -2.69598e-16
   1.99218 2.99558e-16
   1.99265 7.97423e-17
    1.9931 3.26277e-17
   1.99355 3.10687e-16
   1.99399 -3.76248e-16
   1.99444 1.44345e-16
   1.99488 -1.39288e-16
   1.99533 8.80664e-17
   1.99577 8.85617e-17
   1.99622 -2.47379e-16
   1.99666 -1.55586e-16
   1.99711 2.07367e-16
   1.99755 -3.53975e-17
     1.998 -3.74626e-17
   1.99844 4.96115e-17
   1.99889 -2.88158e-17
   1.99933 -1.97864e-17
   1.99978 2.19412e-17
         2 2.3619e-17
