         0 -0.0076813
 0.0002225 -0.00769932
 0.0006675 -0.00774101
 0.0011125 -0.00774829
 0.0015575 -0.00762915
 0.0020025 -0.00729883
 0.0024475 -0.00669692
 0.0028925 -0.00579629
 0.0033375 -0.00460212
 0.0037825 -0.00314561
 0.0042275 -0.00145398
 0.0046725 0.00045518
 0.0051175 0.00251823
 0.0055625 0.00464233
 0.0060075 0.00682669
 0.0064525 0.00908954
 0.0068975  0.0113016
 0.0073476  0.0132986
0.00781612   0.014945
0.00831203  0.0159883
0.00883694  0.0160908
0.00939255  0.0149264
0.00998065  0.0121655
 0.0106031 0.00766122
  0.011262 0.00149878
 0.0119594 -0.00599991
 0.0126977 -0.0141998
  0.013479 -0.0222447
 0.0143061 -0.0291307
 0.0151815 -0.0340642
 0.0161082 -0.0364736
  0.017089 -0.0359188
 0.0181271 -0.0324795
  0.019226 -0.0267256
 0.0203891 -0.0195622
 0.0216203 -0.0119631
 0.0229234 -0.00434913
 0.0243028  0.0032898
 0.0257628  0.0103323
 0.0273082  0.0147481
  0.028944  0.0147145
 0.0306754  0.0108742
 0.0325081 0.00582778
 0.0344479 0.00143347
 0.0365012 -0.00187252
 0.0386746 -0.0047716
  0.040975 -0.00823925
   0.04341 -0.0108438
 0.0459873 -0.0114025
 0.0487154 -0.0124417
  0.051603 -0.0171449
 0.0546595 -0.0239109
 0.0578947 -0.0275093
 0.0613191 -0.0262647
 0.0649437 -0.0242503
 0.0687803 -0.0260829
 0.0728413 -0.0317553
 0.0771397 -0.0360865
 0.0816895 -0.0319096
 0.0865054 -0.0182393
 0.0916029 -0.0010148
 0.0969985  0.0147105
   0.10271  0.0264215
  0.108755  0.0340257
  0.115153  0.0382263
  0.121926  0.0363422
  0.129095  0.0271306
  0.136683    0.01522
  0.144715 0.00189192
  0.153216 -0.00970029
  0.162214 -0.00367536
  0.171739  0.0180344
  0.181821  0.0343548
  0.192492  0.0478032
  0.203788  0.0594277
  0.215744  0.0622265
  0.228399  0.0642056
  0.241794  0.0538124
  0.255972  0.0162031
   0.27098 -0.0287645
  0.286865 -0.0576792
  0.304824 -0.0655342
  0.324407 -0.0487052
  0.343989 -0.0211852
  0.363571 -0.00633705
  0.383154 0.00833798
  0.402736  0.0253505
  0.422319  0.0222981
  0.441901  0.0165416
  0.461484  0.0136188
  0.481066 -0.00144711
  0.500648 -0.0102778
  0.520231 -0.0181869
  0.539813 -0.0183856
  0.559396 -0.00153079
  0.578978 -0.000173673
   0.59856 -0.00399839
  0.618143 0.00852526
  0.637725  0.0187643
  0.657308  0.0124288
   0.67689 -0.00326851
  0.696473 -0.00329322
  0.716055  0.0193593
  0.735637  0.0298375
   0.75522  0.0129864
  0.774802 -0.00342138
  0.794385 -0.0116153
  0.813967 -0.0283742
  0.833549 -0.0474444
  0.853132 -0.0538073
  0.872714 -0.0484012
  0.892297 -0.0351842
  0.911879 -0.0185804
  0.931462 -0.00902057
  0.951044 -0.00787531
  0.970626 -0.0069148
  0.990209 -0.00234255
   1.00979  0.0043694
   1.02937 0.00627949
   1.04896 0.00120662
   1.06854 -0.00143513
   1.08812 0.00378611
    1.1077  0.0125684
   1.12729  0.0201114
   1.14687  0.0262606
   1.16645  0.0276006
   1.18603  0.0189584
   1.20562 0.00488814
    1.2252 -0.0054345
   1.24478 -0.00943683
   1.26436 -0.00703816
   1.28395 -0.00224032
   1.30353 -0.00125207
   1.32311 -0.0083294
   1.34269 -0.0115089
   1.36228 0.00725433
   1.38186   0.023935
   1.40144  0.0181197
   1.42102 0.00840727
   1.44061 0.00413541
   1.46019 -0.000867194
   1.47977 -0.00724655
   1.49935 -0.0161692
   1.51894 -0.0232072
   1.53852 -0.0180297
    1.5581 0.00231755
   1.57768  0.0251455
   1.59727  0.0332752
   1.61685  0.0237098
   1.63643 -0.0019716
   1.65601 -0.0335242
    1.6756 -0.0399515
   1.69518 -0.0212539
   1.71314 -0.0238008
   1.72902 -0.0403003
   1.74403 -0.0392808
   1.75821 -0.0240204
    1.7716 -0.00199351
   1.78426  0.0239582
   1.79621  0.0506574
   1.80751  0.0585692
   1.81818  0.0341197
   1.82826 -0.00341445
   1.83779  -0.023342
   1.84679 -0.0255298
   1.85529 -0.0189105
   1.86332 -0.000575454
   1.87091  0.0202902
   1.87808  0.0359727
   1.88485  0.0466683
   1.89125  0.0503016
   1.89729  0.0463288
     1.903  0.0375486
    1.9084  0.0266561
    1.9135  0.0149151
   1.91831 0.00682106
   1.92286 0.00569244
   1.92716 0.00880233
   1.93122  0.0144364
   1.93506  0.0205316
   1.93868  0.0239674
   1.94211    0.02496
   1.94534  0.0265911
    1.9484  0.0311442
   1.95129  0.0379238
   1.95401  0.0450583
   1.95659  0.0494675
   1.95903  0.0496849
   1.96133  0.0479405
    1.9635  0.0468121
   1.96555  0.0466202
   1.96749  0.0464363
   1.96933  0.0455611
   1.97106  0.0439369
   1.97269  0.0417423
   1.97424  0.0388612
    1.9757  0.0353545
   1.97708  0.0310566
   1.97838   0.025307
   1.97961  0.0182394
   1.98077  0.0107382
   1.98187 0.00324207
   1.98291 -0.00440054
   1.98389 -0.0124131
   1.98482 -0.0206477
   1.98569 -0.0288278
   1.98652 -0.0370362
    1.9873  -0.045461
   1.98804 -0.0539206
   1.98874 -0.0621677
    1.9894 -0.0701538
   1.99002 -0.0776859
   1.99061 -0.0845188
   1.99116  -0.090529
   1.99169 -0.0956779
   1.99218 -0.0999836
   1.99265  -0.103482
    1.9931  -0.106312
   1.99355  -0.108678
   1.99399  -0.110608
   1.99444  -0.112005
   1.99488  -0.112843
   1.99533   -0.11317
   1.99577  -0.113012
   1.99622  -0.112392
   1.99666  -0.111411
   1.99711  -0.110227
   1.99755  -0.109008
     1.998  -0.107902
   1.99844  -0.107015
   1.99889  -0.106395
   1.99933  -0.106034
   1.99978  -0.105884
         2  -0.105853
