         0  0.0234586
 0.0002225  0.0284088
 0.0006675  0.0387444
 0.0011125  0.0510575
 0.0015575  0.0659954
 0.0020025    0.08296
 0.0024475   0.100389
 0.0028925   0.116258
 0.0033375   0.128664
 0.0037825   0.136256
 0.0042275   0.138416
 0.0046725   0.135242
 0.0051175   0.127426
 0.0055625   0.116022
 0.0060075   0.102217
 0.0064525   0.087139
 0.0068975  0.0717137
 0.0073476  0.0564579
0.00781612  0.0414537
0.00831203   0.026872
0.00883694  0.0130828
0.00939255 0.000395359
0.00998065 -0.0109437
 0.0106031 -0.0208028
  0.011262  -0.029142
 0.0119594 -0.0359549
 0.0126977 -0.0412071
  0.013479 -0.0447701
 0.0143061 -0.0465063
 0.0151815  -0.046462
 0.0161082 -0.0450068
  0.017089 -0.0427344
 0.0181271 -0.0402129
  0.019226 -0.0378808
 0.0203891 -0.0361517
 0.0216203 -0.0352258
 0.0229234 -0.0351664
 0.0243028 -0.0357007
 0.0257628 -0.0356845
 0.0273082 -0.0340552
  0.028944 -0.0312054
 0.0306754 -0.0283445
 0.0325081  -0.026525
 0.0344479  -0.025962
 0.0365012 -0.0253071
 0.0386746 -0.0235774
  0.040975 -0.0219941
   0.04341 -0.0209403
 0.0459873 -0.0195987
 0.0487154 -0.0185672
  0.051603 -0.0176976
 0.0546595 -0.0158231
 0.0578947 -0.0133076
 0.0613191 -0.0107653
 0.0649437 -0.00932052
 0.0687803 -0.00990565
 0.0728413 -0.0113198
 0.0771397 -0.0113128
 0.0816895 -0.0096636
 0.0865054 -0.00753928
 0.0916029  -0.006721
 0.0969985 -0.00599154
   0.10271 -0.00488405
  0.108755 -0.00379314
  0.115153 -0.00281204
  0.121926 -0.00175802
  0.129095 0.000514813
  0.136683 0.00230255
  0.144715 0.00208339
  0.153216 0.00114728
  0.162214 0.00201238
  0.171739 0.00366664
  0.181821   0.004852
  0.192492 0.00424307
  0.203788 0.00354946
  0.215744 0.00343872
  0.228399 0.00312711
  0.241794 0.00113291
  0.255972 -0.00141625
   0.27098 -0.00177026
  0.286865 -0.000972404
  0.304824 -0.00111148
  0.324407 -0.0014806
  0.343989 -0.0021364
  0.363571 -0.000616046
  0.383154 -0.000532195
  0.402736 -0.00234746
  0.422319 -0.0034138
  0.441901 -0.00356581
  0.461484 -0.000849317
  0.481066 0.000624387
  0.500648 0.00219083
  0.520231 0.00218126
  0.539813 0.000956125
  0.559396 -0.0010732
  0.578978 -0.00211616
   0.59856 -0.00262618
  0.618143 -0.00271099
  0.637725 -0.00243999
  0.657308 -0.00322351
   0.67689 -0.00396606
  0.696473 -0.00313231
  0.716055 -0.00126902
  0.735637 -0.000614048
   0.75522 -0.00125156
  0.774802 -0.00174024
  0.794385 -0.00243437
  0.813967 -0.00184565
  0.833549 -0.000902165
  0.853132 -0.000469299
  0.872714 -0.000574371
  0.892297 -0.000574444
  0.911879 -0.000913348
  0.931462 -0.000913319
  0.951044 -0.000471571
  0.970626 -0.000274018
  0.990209 -0.00049701
   1.00979 -0.000929855
   1.02937 -0.00130834
   1.04896 -0.0016892
   1.06854 -0.00153591
   1.08812 -0.00130359
    1.1077 -0.000803749
   1.12729 -0.000138331
   1.14687 0.000671966
   1.16645 0.00144924
   1.18603 0.00148354
   1.20562 0.00134706
    1.2252 0.00161897
   1.24478 0.00171866
   1.26436 0.00140344
   1.28395 0.00116627
   1.30353 0.00122213
   1.32311 0.00153567
   1.34269 0.00366074
   1.36228 0.00586965
   1.38186 0.00469314
   1.40144 0.00346756
   1.42102 0.00299159
   1.44061 0.00313647
   1.46019 0.00434973
   1.47977 0.00406111
   1.49935 0.00419063
   1.51894 0.00486741
   1.53852 0.00432791
    1.5581 0.00316327
   1.57768  0.0034156
   1.59727 0.00368994
   1.61685 0.00315956
   1.63643 0.00262866
   1.65601 0.00187323
    1.6756 -0.00170092
   1.69518 -0.0051247
   1.71314 -0.0059317
   1.72902 -0.00725841
   1.74403 -0.00541031
   1.75821 -0.00347869
    1.7716 -0.00303082
   1.78426 -0.00438819
   1.79621 -0.00537517
   1.80751 -0.00526431
   1.81818 -0.00366456
   1.82826 -0.00226111
   1.83779 -0.00230296
   1.84679 -0.00330388
   1.85529 -0.00488195
   1.86332 -0.0065857
   1.87091 -0.00751242
   1.87808 -0.00714144
   1.88485 -0.00688285
   1.89125 -0.00837835
   1.89729 -0.00985587
     1.903 -0.0105716
    1.9084 -0.00816687
    1.9135 -0.00419479
   1.91831 -0.00109333
   1.92286 0.00185794
   1.92716 0.00462319
   1.93122 0.00674392
   1.93506 0.00800094
   1.93868   0.010375
   1.94211  0.0126134
   1.94534  0.0144089
    1.9484  0.0174786
   1.95129  0.0210307
   1.95401  0.0243232
   1.95659  0.0265875
   1.95903  0.0279939
   1.96133  0.0300196
    1.9635  0.0327438
   1.96555   0.035353
   1.96749  0.0372328
   1.96933  0.0380167
   1.97106  0.0375031
   1.97269  0.0355135
   1.97424  0.0325293
    1.9757  0.0293868
   1.97708  0.0269089
   1.97838  0.0249862
   1.97961  0.0226078
   1.98077  0.0188885
   1.98187  0.0137382
   1.98291 0.00774164
   1.98389 0.00144391
   1.98482 -0.00490944
   1.98569 -0.0112481
   1.98652 -0.0175158
    1.9873 -0.0235233
   1.98804  -0.029052
   1.98874  -0.034039
    1.9894 -0.0386446
   1.99002 -0.0431923
   1.99061 -0.0480785
   1.99116  -0.053661
   1.99169 -0.0601715
   1.99218 -0.0677154
   1.99265 -0.0762397
    1.9931 -0.0857087
   1.99355 -0.0962623
   1.99399  -0.107911
   1.99444  -0.120434
   1.99488  -0.133487
   1.99533  -0.146609
   1.99577  -0.159253
   1.99622  -0.170877
   1.99666  -0.181023
   1.99711  -0.189376
   1.99755  -0.195845
     1.998  -0.200588
   1.99844  -0.203953
   1.99889  -0.206358
   1.99933  -0.208186
   1.99978  -0.209757
         2  -0.210529
