         0 -0.000261481
 0.0002225 -0.000261967
 0.0006675 -0.000795323
 0.0011125 -0.00137252
 0.0015575 -0.00204042
 0.0020025 -0.00286463
 0.0024475 -0.00393154
 0.0028925 -0.00534153
 0.0033375 -0.00719645
 0.0037825 -0.00958409
 0.0042275 -0.0125605
 0.0046725 -0.0161372
 0.0051175 -0.0202767
 0.0055625 -0.0248946
 0.0060075 -0.0298655
 0.0064525 -0.0350284
 0.0068975 -0.0402236
 0.0073476   -0.04538
0.00781612 -0.0504827
0.00831203 -0.0553796
0.00883694 -0.0598068
0.00939255 -0.0635093
0.00998065 -0.0662376
 0.0106031 -0.0677697
  0.011262 -0.0679298
 0.0119594 -0.0665998
 0.0126977 -0.0637276
  0.013479  -0.059328
 0.0143061 -0.0534699
 0.0151815 -0.0462855
 0.0161082 -0.0379994
  0.017089 -0.0289229
 0.0181271 -0.0194449
  0.019226 -0.0100362
 0.0203891 -0.00119682
 0.0216203 0.00661142
 0.0229234  0.0130382
 0.0243028  0.0180231
 0.0257628  0.0218587
 0.0273082  0.0250113
  0.028944  0.0277904
 0.0306754  0.0301425
 0.0325081  0.0317162
 0.0344479  0.0320867
 0.0365012  0.0312249
 0.0386746  0.0295706
  0.040975  0.0275249
   0.04341  0.0253579
 0.0459873   0.023243
 0.0487154  0.0214765
  0.051603   0.020633
 0.0546595  0.0205239
 0.0578947  0.0201867
 0.0613191  0.0189326
 0.0649437  0.0164495
 0.0687803  0.0131069
 0.0728413 0.00970985
 0.0771397 0.00664299
 0.0816895  0.0039348
 0.0865054 0.00183615
 0.0916029 0.000473207
 0.0969985 6.63167e-05
   0.10271  0.0009394
  0.108755 0.00323159
  0.115153 0.00626851
  0.121926  0.0092521
  0.129095  0.0118085
  0.136683  0.0137244
  0.144715  0.0148708
  0.153216  0.0157081
  0.162214  0.0169065
  0.171739  0.0180366
  0.181821  0.0182185
  0.192492  0.0171232
  0.203788  0.0150362
  0.215744  0.0128818
  0.228399  0.0104716
  0.241794 0.00836786
  0.255972 0.00623644
   0.27098 0.00375072
  0.286865 0.00146651
  0.304824 0.000451265
  0.324407 0.000559396
  0.343989 8.56716e-05
  0.363571 -0.00117292
  0.383154  -0.002126
  0.402736 -0.00346435
  0.422319 -0.00449923
  0.441901 -0.00385525
  0.461484 -0.00271382
  0.481066 -0.00339668
  0.500648 -0.00388394
  0.520231 -0.00410851
  0.539813 -0.00496632
  0.559396 -0.00647825
  0.578978 -0.00817601
   0.59856 -0.00946501
  0.618143 -0.00961735
  0.637725 -0.00904562
  0.657308 -0.00837612
   0.67689 -0.00749353
  0.696473 -0.00654031
  0.716055 -0.00574864
  0.735637 -0.0052715
   0.75522 -0.00509256
  0.774802 -0.00514522
  0.794385 -0.00487377
  0.813967 -0.00410253
  0.833549 -0.00362219
  0.853132 -0.00325847
  0.872714 -0.00277737
  0.892297 -0.00225503
  0.911879 -0.00211369
  0.931462 -0.00245127
  0.951044 -0.0026918
  0.970626 -0.0027771
  0.990209 -0.00265236
   1.00979 -0.00222354
   1.02937 -0.00180119
   1.04896 -0.00148054
   1.06854 -0.00141906
   1.08812 -0.00149378
    1.1077 -0.00178555
   1.12729 -0.00228005
   1.14687 -0.00256719
   1.16645 -0.00258513
   1.18603 -0.0023591
   1.20562 -0.00202886
    1.2252 -0.00175437
   1.24478 -0.00151945
   1.26436 -0.00123598
   1.28395 -0.000625872
   1.30353 -0.000250661
   1.32311 -0.000561491
   1.34269 -0.000801249
   1.36228 -0.00134393
   1.38186 -0.00183957
   1.40144 -0.00197898
   1.42102 -0.00158471
   1.44061 -0.00142591
   1.46019 -0.00180822
   1.47977 -0.00189313
   1.49935 -0.00184845
   1.51894 -0.00275778
   1.53852 -0.00411948
    1.5581 -0.00465658
   1.57768 -0.00378394
   1.59727 -0.00263938
   1.61685 -0.00120521
   1.63643 0.00121366
   1.65601 0.00343959
    1.6756 0.00613185
   1.69518 0.00879901
   1.71314  0.0115863
   1.72902  0.0137633
   1.74403  0.0146602
   1.75821  0.0142189
    1.7716  0.0137996
   1.78426  0.0140542
   1.79621  0.0140762
   1.80751  0.0137798
   1.81818  0.0136431
   1.82826  0.0136825
   1.83779  0.0140178
   1.84679  0.0140557
   1.85529  0.0136792
   1.86332  0.0129838
   1.87091  0.0129889
   1.87808  0.0145241
   1.88485  0.0165421
   1.89125  0.0179252
   1.89729  0.0181343
     1.903  0.0170309
    1.9084  0.0150142
    1.9135  0.0123624
   1.91831 0.00898061
   1.92286 0.00541793
   1.92716 0.00243329
   1.93122 0.000131602
   1.93506 -0.00174331
   1.93868 -0.00340629
   1.94211 -0.00477148
   1.94534 -0.00602224
    1.9484 -0.00743613
   1.95129 -0.00921602
   1.95401 -0.0114292
   1.95659 -0.0137825
   1.95903 -0.0156998
   1.96133 -0.0165805
    1.9635 -0.0161776
   1.96555 -0.0147776
   1.96749 -0.0127817
   1.96933 -0.0104073
   1.97106 -0.00767792
   1.97269 -0.00451471
   1.97424 -0.000840335
    1.9757 0.00329801
   1.97708 0.00774256
   1.97838  0.0123727
   1.97961  0.0171512
   1.98077   0.022042
   1.98187  0.0269495
   1.98291  0.0317177
   1.98389   0.036172
   1.98482  0.0401507
   1.98569  0.0435267
   1.98652  0.0461962
    1.9873   0.048069
   1.98804  0.0491032
   1.98874  0.0493194
    1.9894  0.0487854
   1.99002  0.0476011
   1.99061  0.0458923
   1.99116  0.0437953
   1.99169  0.0414413
   1.99218  0.0389481
   1.99265  0.0364014
    1.9931   0.033814
   1.99355   0.031159
   1.99399  0.0284407
   1.99444    0.02568
   1.99488   0.022894
   1.99533  0.0200996
   1.99577  0.0173206
   1.99622  0.0145922
   1.99666  0.0119616
   1.99711 0.00948627
   1.99755  0.0072279
     1.998 0.00524249
   1.99844 0.00356972
   1.99889 0.00222272
   1.99933 0.00117768
   1.99978 0.000361758
         2 0.000347995
