 0.0002225 0.000569149
 0.0006675 0.00138217
 0.0011125 0.00195826
 0.0015575 0.00231087
 0.0020025 0.00254328
 0.0024475 0.00262676
 0.0028925 0.00266335
 0.0033375 0.00260172
 0.0037825 0.00253397
 0.0042275 0.00240205
 0.0046725 0.00228255
 0.0051175 0.00212262
 0.0055625 0.00197905
 0.0060075 0.00181378
 0.0064525 0.00165914
 0.0068975 0.00155321
 0.0073476 0.00132706
0.00781612 0.00112098
0.00831203 0.00106735
0.00883694 0.000799785
0.00939255 0.00070302
0.00998065 0.000456539
 0.0106031 0.000327642
  0.011262 0.000101376
 0.0119594 -4.40672e-05
 0.0126977 -0.000246703
  0.013479 -0.000390547
 0.0143061 -0.000561599
 0.0151815 -0.00068535
 0.0161082 -0.00081463
  0.017089 -0.000902255
 0.0181271 -0.000980966
  0.019226 -0.0010218
 0.0203891 -0.00104587
 0.0216203 -0.00103656
 0.0229234 -0.00100858
 0.0243028 -0.000953689
 0.0257628 -0.000883172
 0.0273082 -0.00079421
  0.028944 -0.000695934
 0.0306754 -0.00058858
 0.0325081 -0.0004797
 0.0344479 -0.000370925
 0.0365012 -0.000268506
 0.0386746 -0.000174283
  0.040975 -9.27734e-05
   0.04341 -2.40191e-05
 0.0459873 3.00589e-05
 0.0487154 7.06402e-05
  0.051603 9.71281e-05
 0.0546595 0.000112677
 0.0578947 0.000117791
 0.0613191 0.000115513
 0.0649437 0.000106234
 0.0687803 9.39856e-05
 0.0728413 7.90035e-05
 0.0771397 6.39575e-05
 0.0816895 4.78825e-05
 0.0865054 3.3871e-05
 0.0916029 2.04977e-05
 0.0969985 1.12644e-05
   0.10271 4.16371e-06
  0.108755 -1.23653e-07
  0.115153 -4.59333e-06
  0.121926 -6.03585e-06
  0.129095 -6.09907e-06
  0.136683 -3.29591e-06
  0.144715 1.11269e-06
  0.153216 5.30247e-06
  0.162214 8.58432e-06
  0.171739 7.17371e-06
  0.181821 7.86036e-06
  0.192492 8.46171e-06
  0.203788 1.44641e-05
  0.215744 1.32545e-05
  0.228399 1.29429e-05
  0.241794 1.45063e-05
  0.255972 9.6511e-06
   0.27098 2.07339e-05
  0.286865 2.59392e-05
  0.304824 -5.42823e-05
  0.324407 -1.11175e-05
  0.343989 1.84112e-06
  0.363571 5.51639e-06
  0.383154 3.04488e-06
  0.402736 4.43298e-06
  0.422319 1.97894e-06
  0.441901 5.43932e-06
  0.461484 1.63357e-06
  0.481066 3.64364e-06
  0.500648 6.4111e-06
  0.520231 8.55652e-06
  0.539813 5.93822e-06
  0.559396 2.01658e-06
  0.578978 -4.1667e-06
   0.59856 -4.76197e-06
  0.618143 -6.87747e-06
  0.637725 -6.98026e-06
  0.657308 -6.95611e-06
   0.67689 -6.88662e-06
  0.696473 -7.86659e-06
  0.716055 -8.68685e-06
  0.735637 -9.56986e-06
   0.75522 -9.81084e-06
  0.774802 -9.47357e-06
  0.794385 -9.18543e-06
  0.813967 -9.92265e-06
  0.833549 -1.07939e-05
  0.853132 -1.23693e-05
  0.872714 -1.29381e-05
  0.892297 -1.37456e-05
  0.911879 -1.43414e-05
  0.931462 -1.40368e-05
  0.951044 -1.32367e-05
  0.970626 -1.27423e-05
  0.990209 -1.23466e-05
   1.00979 -1.25694e-05
   1.02937 -1.26766e-05
   1.04896 -1.2044e-05
   1.06854 -1.20223e-05
   1.08812 -1.2257e-05
    1.1077 -1.32632e-05
   1.12729 -1.35451e-05
   1.14687 -1.3501e-05
   1.16645 -1.26883e-05
   1.18603 -1.23267e-05
   1.20562 -1.17877e-05
    1.2252 -1.13881e-05
   1.24478 -1.12109e-05
   1.26436 -1.10468e-05
   1.28395 -1.05292e-05
   1.30353 -1.11661e-05
   1.32311 -1.01638e-05
   1.34269 -9.1654e-06
   1.36228 -7.94366e-06
   1.38186 -7.51695e-06
   1.40144 -4.76701e-06
   1.42102 -4.09026e-06
   1.44061 -2.61967e-06
   1.46019 -2.58907e-06
   1.47977 -5.41365e-07
   1.49935 1.89433e-06
   1.51894 6.3792e-06
   1.53852 6.93197e-06
    1.5581 8.14336e-06
   1.57768 6.15679e-06
   1.59727 1.16286e-05
   1.61685 9.94873e-06
   1.63643 1.07678e-05
   1.65601 2.1238e-06
    1.6756 -1.29989e-05
   1.69518 -5.68766e-05
   1.71314 2.87505e-05
   1.72902 2.93995e-05
   1.74403 1.80771e-05
   1.75821 1.90763e-05
    1.7716 1.62262e-05
   1.78426 1.51018e-05
   1.79621 1.47652e-05
   1.80751 9.36651e-06
   1.81818 9.0104e-06
   1.82826 6.57484e-06
   1.83779 4.77866e-06
   1.84679 -3.06718e-07
   1.85529 -3.68263e-06
   1.86332 -8.10753e-06
   1.87091 -1.15692e-05
   1.87808 -1.24088e-05
   1.88485 -1.05109e-05
   1.89125 -6.84295e-06
   1.89729 -3.35066e-06
     1.903 2.83996e-06
    1.9084 1.0444e-05
    1.9135 2.16525e-05
   1.91831 3.35501e-05
   1.92286 4.77551e-05
   1.92716 6.21816e-05
   1.93122 7.72914e-05
   1.93506 9.03557e-05
   1.93868 0.000101772
   1.94211 0.000107531
   1.94534 0.000106012
    1.9484 9.31179e-05
   1.95129 6.8235e-05
   1.95401 2.84249e-05
   1.95659 -2.52622e-05
   1.95903 -9.32926e-05
   1.96133 -0.000173005
    1.9635 -0.000264081
   1.96555 -0.000362251
   1.96749 -0.000466176
   1.96933 -0.000570004
   1.97106 -0.000672382
   1.97269 -0.000765901
   1.97424 -0.000850379
    1.9757 -0.000916676
   1.97708 -0.000967685
   1.97838 -0.000992298
   1.97961 -0.000998918
   1.98077 -0.000972999
   1.98187 -0.000931213
   1.98291 -0.000852594
   1.98389 -0.000765982
   1.98482 -0.000638913
   1.98569 -0.000518144
   1.98652 -0.000351376
    1.9873 -0.000212131
   1.98804 -1.55265e-05
   1.98874 0.000124387
    1.9894 0.00034332
   1.99002 0.000466607
   1.99061 0.000704824
   1.99116 0.000796709
   1.99169 0.00105527
   1.99218 0.00110531
   1.99265 0.00130428
    1.9931 0.00152174
   1.99355 0.00162322
   1.99399  0.0017715
   1.99444 0.00193025
   1.99488 0.00206759
   1.99533 0.00222084
   1.99577 0.00233453
   1.99622 0.00246018
   1.99666 0.00252333
   1.99711 0.00258046
   1.99755 0.00254237
     1.998 0.00245899
   1.99844 0.00223191
   1.99889  0.0018893
   1.99933 0.00133201
   1.99978 0.000547758
