  0.000445 0.000675667
  0.001335 0.00147079
  0.002225 0.00190243
  0.003115 0.00205887
  0.004005 0.00208666
  0.004895 0.00199388
  0.005785 0.00187201
  0.006675 0.00171939
0.00756867 0.00159933
0.00852095 0.00128319
0.00958982 0.00123779
 0.0107896 0.00090211
 0.0121362 0.000723429
 0.0136477 0.000388233
 0.0153442 0.000117805
 0.0172484 -0.000216232
 0.0193858 -0.000497326
 0.0217849 -0.000760794
 0.0244777 -0.000940415
 0.0275001 -0.00104154
 0.0308926 -0.00103887
 0.0347005 -0.000947244
 0.0389746 -0.00077901
 0.0437719 -0.000565745
 0.0491566 -0.0003398
 0.0552005 -0.000134655
 0.0619844 2.23847e-05
 0.0695988 0.000116575
 0.0781455 0.00015354
 0.0877386 0.000147551
 0.0985062 0.000110109
  0.110592 7.04984e-05
  0.124158 4.17972e-05
  0.139384 1.87699e-05
  0.156474 4.81336e-06
  0.175657 -2.37793e-06
  0.197189 -1.43234e-07
  0.221357 -7.46825e-06
  0.248483 1.28495e-05
  0.278931 -6.40409e-06
  0.314615 -3.4068e-05
   0.35378 -9.60166e-06
  0.392945 1.46296e-05
   0.43211 7.44379e-06
  0.471275 8.80417e-06
   0.51044 1.02624e-05
  0.549604 9.95089e-06
  0.588769 6.86032e-06
  0.627934 1.24286e-06
  0.667099 2.65871e-07
  0.706264 -9.5292e-07
  0.745429 1.01985e-06
  0.784593 -2.07109e-06
  0.823758 -5.01027e-06
  0.862923 -6.70589e-06
  0.902088 -7.81434e-06
  0.941253 -8.33473e-06
  0.980418 -6.98876e-06
   1.01958 -6.34426e-06
   1.05875 -6.0646e-06
   1.09791 -5.77895e-06
   1.13708 -3.42338e-06
   1.17624 -1.29732e-06
   1.21541 -1.64964e-06
   1.25457 9.32078e-07
   1.29374 1.33446e-06
    1.3329 1.16064e-06
   1.37207 5.01556e-06
   1.41123 6.67472e-06
    1.4504 4.03435e-06
   1.48956 8.55546e-06
   1.52873 1.34449e-05
   1.56789 8.86088e-06
   1.60706 1.49759e-05
   1.64622 -1.29173e-05
   1.68539 -3.03681e-05
   1.72107 -1.35148e-05
   1.75152 8.40479e-06
   1.77865 -3.50712e-06
   1.80281 4.32769e-06
   1.82434 -3.88332e-06
   1.84353 8.93517e-06
   1.86062 2.38182e-05
   1.87584 4.60854e-05
   1.88941 7.4841e-05
    1.9015 0.000114883
   1.91226 0.000143487
   1.92186 0.000148556
    1.9304 0.000116878
   1.93802 2.39028e-05
    1.9448 -0.000133345
   1.95084 -0.000343168
   1.95623 -0.000575626
   1.96103 -0.000794579
    1.9653 -0.00096726
   1.96911 -0.0010603
    1.9725 -0.0010632
   1.97552 -0.000959876
   1.97822 -0.000777323
   1.98061 -0.000509215
   1.98275 -0.000223056
   1.98466 0.000117858
   1.98635 0.000394735
   1.98786 0.000737656
   1.98921 0.00092133
   1.99041 0.00126436
   1.99148 0.00131135
   1.99243 0.00163392
   1.99333 0.00175678
   1.99421 0.00191258
    1.9951 0.00203752
     1.996 0.00213291
   1.99689  0.0021056
   1.99777 0.00194685
   1.99867 0.00150636
   1.99956 0.000692734
