         0          0
  0.000445 -0.000482479
  0.001335 -0.00106356
  0.002225 -0.00138974
  0.003115 -0.00152145
  0.004005 -0.00155599
  0.004895 -0.00150329
  0.005785 -0.00142201
  0.006675 -0.00133111
0.00756867 -0.00123881
0.00852095  -0.001014
0.00958982 -0.000962805
 0.0107896 -0.000726245
 0.0121362 -0.000585449
 0.0136477 -0.000344899
 0.0153442 -0.000156283
 0.0172484 7.92148e-05
 0.0193858 0.000279016
 0.0217849 0.000467674
 0.0244777 0.000603436
 0.0275001 0.000709959
 0.0308926 0.000722356
 0.0347005 0.000667302
 0.0389746 0.000556672
 0.0437719 0.000415835
 0.0491566 0.000264698
 0.0552005 0.000116623
 0.0619844 -1.52762e-05
 0.0695988 -8.99713e-05
 0.0781455 -0.00011834
 0.0877386 -0.000104383
 0.0985062 -9.66835e-05
  0.110592 -7.36536e-05
  0.124158 -4.80655e-05
  0.139384 -3.87803e-05
  0.156474 -2.8364e-05
  0.175657 -4.23212e-05
  0.197189 -9.99325e-06
  0.221357 -8.82161e-06
  0.248483 -1.44784e-05
  0.278931 3.81654e-06
  0.314615 3.00015e-05
   0.35378 2.12383e-06
  0.392945 -1.1751e-05
   0.43211 -1.74825e-05
  0.471275 -1.38359e-05
   0.51044 -1.07248e-05
  0.549604 -1.2649e-05
  0.588769 -1.03162e-05
  0.627934 -6.3087e-06
  0.667099 -6.66392e-06
  0.706264 -4.97592e-06
  0.745429 1.13047e-07
  0.784593 4.06454e-06
  0.823758 4.33637e-06
  0.862923 5.78852e-06
  0.902088 6.1055e-06
  0.941253 6.05384e-06
  0.980418 5.86113e-06
   1.01958 8.36504e-06
   1.05875 8.37301e-06
   1.09791 8.39747e-06
   1.13708 1.08203e-05
   1.17624 1.07163e-05
   1.21541 8.7498e-06
   1.25457 6.91184e-06
   1.29374 9.49811e-06
    1.3329 6.69945e-06
   1.37207 4.96153e-06
   1.41123 2.07822e-06
    1.4504 -3.34394e-06
   1.48956 -7.31643e-06
   1.52873 -1.14914e-05
   1.56789 8.7295e-06
   1.60706 2.09583e-05
   1.64622 2.75749e-05
   1.68539 2.51948e-05
   1.72107 -5.09658e-06
   1.75152 1.26627e-05
   1.77865 1.30044e-05
   1.80281 2.80219e-05
   1.82434 3.20413e-05
   1.84353 1.63591e-05
   1.86062 6.57418e-06
   1.87584 -2.67765e-05
   1.88941 -4.57462e-05
    1.9015 -8.23152e-05
   1.91226 -0.000127783
   1.92186 -0.00012114
    1.9304 -6.35144e-05
   1.93802 1.5533e-05
    1.9448 0.000131245
   1.95084 0.000271325
   1.95623 0.000425236
   1.96103 0.000549087
    1.9653 0.000650989
   1.96911 0.000700001
    1.9725 0.000690679
   1.97552 0.000594338
   1.97822 0.000454943
   1.98061 0.000270018
   1.98275 8.34083e-05
   1.98466 -0.000142609
   1.98635 -0.000347456
   1.98786 -0.000585356
   1.98921 -0.000716966
   1.99041 -0.000962649
   1.99148 -0.00100248
   1.99243 -0.00123768
   1.99333 -0.00132376
   1.99421 -0.00143104
    1.9951 -0.00151501
     1.996 -0.00156587
   1.99689 -0.00153082
   1.99777 -0.00139826
   1.99867 -0.00107024
   1.99956 -0.000485621
         2          0
