         0          0
  0.000445   -11.2655
  0.001335    -39.004
  0.002225   -99.4997
  0.003115   -212.407
  0.004005   -385.193
  0.004895   -606.524
  0.005785   -852.755
  0.006675   -1093.73
0.00756867   -1320.48
0.00852095   -1469.22
0.00958982   -1575.14
 0.0107896   -1600.22
 0.0121362   -1544.78
 0.0136477   -1416.37
 0.0153442   -1242.04
 0.0172484   -1047.43
 0.0193858   -858.175
 0.0217849   -688.524
 0.0244777   -545.695
 0.0275001   -429.114
 0.0308926   -336.773
 0.0347005   -264.081
 0.0389746   -207.467
 0.0437719   -163.331
 0.0491566   -129.056
 0.0552005   -102.437
 0.0619844   -81.9508
 0.0695988   -65.8125
 0.0781455   -53.1525
 0.0877386   -43.1075
 0.0985062   -35.4071
  0.110592   -29.4797
  0.124158   -24.6697
  0.139384   -20.5746
  0.156474   -17.6814
  0.175657   -14.5011
  0.197189   -13.4581
  0.221357   -9.63352
  0.248483   -11.1273
  0.278931   -6.79117
  0.314615   -6.34647
   0.35378     -7.135
  0.392945   -5.02664
   0.43211   -5.50032
  0.471275   -4.28388
   0.51044   -4.41369
  0.549604   -3.42566
  0.588769   -3.50386
  0.627934   -2.89986
  0.667099   -2.77671
  0.706264   -2.54923
  0.745429   -2.44419
  0.784593   -2.18853
  0.823758   -2.05276
  0.862923   -1.94428
  0.902088   -1.91049
  0.941253   -1.79387
  0.980418   -1.79381
   1.01958   -1.79188
   1.05875   -1.85118
   1.09791   -1.98907
   1.13708   -2.03372
   1.17624   -2.18267
   1.21541   -2.12702
   1.25457   -2.35517
   1.29374   -2.44262
    1.3329   -2.83095
   1.37207    -3.0669
   1.41123    -3.4834
    1.4504   -3.47636
   1.48956   -4.32172
   1.52873   -4.28738
   1.56789   -5.48511
   1.60706   -4.89378
   1.64622   -6.93219
   1.68539   -6.52987
   1.72107   -6.91538
   1.75152   -11.0557
   1.77865   -9.79554
   1.80281   -13.4488
   1.82434   -14.4428
   1.84353    -17.872
   1.86062   -20.6793
   1.87584    -24.967
   1.88941   -29.5945
    1.9015   -35.6516
   1.91226   -43.4575
   1.92186   -53.1757
    1.9304   -65.5973
   1.93802   -81.8629
    1.9448     -102.8
   1.95084   -129.618
   1.95623   -164.032
   1.96103   -208.389
    1.9653   -264.941
   1.96911   -337.606
    1.9725   -430.178
   1.97552   -547.319
   1.97822   -691.309
   1.98061   -862.451
   1.98275   -1053.39
   1.98466      -1250
   1.98635   -1426.93
   1.98786   -1557.51
   1.98921   -1614.52
   1.99041   -1590.59
   1.99148   -1484.48
   1.99243   -1335.28
   1.99333   -1106.57
   1.99421   -863.542
    1.9951   -614.563
     1.996   -390.389
   1.99689   -215.239
   1.99777   -100.724
   1.99867   -39.3887
   1.99956   -11.3446
         2          0
