         0          0
  0.000445 -9.42562e-11
  0.001335 -3.17532e-09
  0.002225 -1.49685e-08
  0.003115 -4.05214e-08
  0.004005 -8.25192e-08
  0.004895 -1.44022e-07
  0.005785 -2.21214e-07
  0.006675 -3.1475e-07
0.00756867 -4.13496e-07
0.00852095 -5.18737e-07
0.00958982 -6.43596e-07
 0.0107896 -7.63906e-07
 0.0121362 -8.87744e-07
 0.0136477 -9.93782e-07
 0.0153442 -1.09296e-06
 0.0172484 -1.17402e-06
 0.0193858 -1.24848e-06
 0.0217849 -1.30056e-06
 0.0244777 -1.33156e-06
 0.0275001 -1.38411e-06
 0.0308926 -1.46892e-06
 0.0347005 -1.56532e-06
 0.0389746 -1.69433e-06
 0.0437719 -1.80315e-06
 0.0491566 -1.81503e-06
 0.0552005 -1.81142e-06
 0.0619844 -1.90717e-06
 0.0695988 -1.93784e-06
 0.0781455 -1.82733e-06
 0.0877386 -1.71693e-06
 0.0985062 -1.65873e-06
  0.110592 -1.35101e-06
  0.124158 -1.05999e-06
  0.139384 -1.05838e-06
  0.156474 -1.08366e-06
  0.175657 -1.03575e-06
  0.197189 -1.20473e-06
  0.221357 -1.40832e-06
  0.248483 -8.53341e-07
  0.278931 -8.67139e-07
  0.314615 -1.94791e-06
   0.35378 -8.56379e-07
  0.392945 -2.78659e-06
   0.43211 -3.28767e-06
  0.471275 -2.21556e-06
   0.51044 -3.35549e-06
  0.549604 -1.86238e-06
  0.588769 -2.02361e-06
  0.627934 -1.56232e-06
  0.667099 -8.63732e-09
  0.706264 -7.19482e-07
  0.745429 -2.37979e-08
  0.784593 1.79977e-08
  0.823758 7.79804e-07
  0.862923 5.94409e-07
  0.902088 -1.18206e-07
  0.941253 -2.93484e-07
  0.980418 -2.02475e-07
   1.01958 -4.39691e-08
   1.05875 2.74934e-07
   1.09791 3.42245e-07
   1.13708 2.73758e-07
   1.17624 6.57842e-07
   1.21541 7.3069e-07
   1.25457 1.65564e-06
   1.29374 1.33121e-06
    1.3329 1.39282e-06
   1.37207 9.0657e-07
   1.41123 3.98029e-07
    1.4504 -1.66699e-06
   1.48956 -9.86857e-07
   1.52873 -1.61749e-06
   1.56789 1.23055e-07
   1.60706 -4.35144e-08
   1.64622 1.26154e-06
   1.68539 2.11806e-06
   1.72107 1.90112e-06
   1.75152 1.04944e-06
   1.77865 9.43555e-07
   1.80281 1.3783e-06
   1.82434 1.07293e-06
   1.84353 1.55256e-06
   1.86062 1.44611e-06
   1.87584 1.9298e-06
   1.88941 2.37733e-06
    1.9015 2.72458e-06
   1.91226 3.06156e-06
   1.92186 3.18955e-06
    1.9304 3.29543e-06
   1.93802 3.33528e-06
    1.9448 3.36293e-06
   1.95084 3.26914e-06
   1.95623 3.17784e-06
   1.96103 3.08496e-06
    1.9653 2.85558e-06
   1.96911 2.60755e-06
    1.9725 2.32784e-06
   1.97552 2.08265e-06
   1.97822 1.87109e-06
   1.98061 1.68133e-06
   1.98275 1.47393e-06
   1.98466 1.27326e-06
   1.98635 1.07286e-06
   1.98786 8.94768e-07
   1.98921 7.24828e-07
   1.99041 5.84718e-07
   1.99148 4.56577e-07
   1.99243 3.58773e-07
   1.99333 2.71463e-07
   1.99421 1.93294e-07
    1.9951 1.28255e-07
     1.996 7.61213e-08
   1.99689 3.88582e-08
   1.99777 1.50515e-08
   1.99867 3.41793e-09
   1.99956 1.39103e-10
         2          0
