         0          0
  0.000445 -1.05857e-07
  0.001335 1.05813e-07
  0.002225 -1.05715e-07
  0.003115 1.05514e-07
  0.004005 -1.0509e-07
  0.004895 1.04732e-07
  0.005785 -1.03787e-07
  0.006675 1.04059e-07
0.00756867 -1.02989e-07
0.00852095 9.48604e-08
0.00958982 -8.56854e-08
 0.0107896 7.79994e-08
 0.0121362 -6.89549e-08
 0.0136477 6.09667e-08
 0.0153442 -5.34403e-08
 0.0172484 4.67588e-08
 0.0193858 -4.11309e-08
 0.0217849 3.58266e-08
 0.0244777 -3.16599e-08
 0.0275001 2.74429e-08
 0.0308926 -2.42435e-08
 0.0347005 2.10361e-08
 0.0389746 -1.86624e-08
 0.0437719 1.62003e-08
 0.0491566 -1.42355e-08
 0.0552005 1.25448e-08
 0.0619844 -1.10532e-08
 0.0695988 9.85341e-09
 0.0781455 -8.81693e-09
 0.0877386 7.74347e-09
 0.0985062 -6.85393e-09
  0.110592 6.1972e-09
  0.124158 -5.66373e-09
  0.139384 5.26151e-09
  0.156474 -5.01179e-09
  0.175657 4.66234e-09
  0.197189 -4.29045e-09
  0.221357 4.13399e-09
  0.248483 -3.91894e-09
  0.278931 3.48286e-09
  0.314615 -2.86347e-09
   0.35378 2.85578e-09
  0.392945 -2.82941e-09
   0.43211 2.84647e-09
  0.471275 -2.96252e-09
   0.51044 3.13814e-09
  0.549604 -3.17052e-09
  0.588769 3.19406e-09
  0.627934 -3.39227e-09
  0.667099 3.69092e-09
  0.706264 -3.97353e-09
  0.745429 4.12613e-09
  0.784593 -4.26898e-09
  0.823758 4.47657e-09
  0.862923 -4.7211e-09
  0.902088 4.97326e-09
  0.941253 -5.23277e-09
  0.980418 5.51053e-09
   1.01958 -5.76157e-09
   1.05875 5.98868e-09
   1.09791 -6.21627e-09
   1.13708 6.36318e-09
   1.17624 -6.42595e-09
   1.21541 6.45882e-09
   1.25457 -6.48255e-09
   1.29374 6.52594e-09
    1.3329 -6.59527e-09
   1.37207 6.64685e-09
   1.41123 -6.64524e-09
    1.4504 6.60287e-09
   1.48956 -6.51411e-09
   1.52873 6.33639e-09
   1.56789 -6.10372e-09
   1.60706 5.85747e-09
   1.64622 -5.58131e-09
   1.68539 5.08273e-09
   1.72107 -5.38665e-09
   1.75152 5.37595e-09
   1.77865 -5.44517e-09
   1.80281 5.30105e-09
   1.82434 -5.25581e-09
   1.84353 5.69128e-09
   1.86062 -6.33931e-09
   1.87584 7.06623e-09
   1.88941 -7.77162e-09
    1.9015 8.34987e-09
   1.91226 -9.06077e-09
   1.92186 1.01221e-08
    1.9304 -1.16496e-08
   1.93802 1.3377e-08
    1.9448 -1.50009e-08
   1.95084 1.69486e-08
   1.95623 -1.90714e-08
   1.96103 2.15458e-08
    1.9653 -2.41792e-08
   1.96911 2.75243e-08
    1.9725 -3.07906e-08
   1.97552 3.50082e-08
   1.97822 -3.91321e-08
   1.98061 4.45061e-08
   1.98275 -5.01175e-08
   1.98466 5.68203e-08
   1.98635 -6.43319e-08
   1.98786 7.22797e-08
   1.98921 -8.12915e-08
   1.99041 8.89333e-08
   1.99148 -9.80833e-08
   1.99243 1.06148e-07
   1.99333 -1.06916e-07
   1.99421 1.06355e-07
    1.9951 -1.07092e-07
     1.996 1.07268e-07
   1.99689 -1.07557e-07
   1.99777 1.0766e-07
   1.99867 -1.07693e-07
   1.99956 1.07706e-07
         2          0
