         0          0
  0.000445 1.1949e-12
  0.001335 -2.56998e-10
  0.002225 -1.82732e-09
  0.003115 -5.88178e-09
  0.004005 -1.37185e-08
  0.004895 -2.60493e-08
  0.005785 -4.20361e-08
  0.006675 -6.12775e-08
0.00756867 -7.95012e-08
0.00852095 -9.68091e-08
0.00958982 -1.11769e-07
 0.0107896 -1.19118e-07
 0.0121362 -1.15192e-07
 0.0136477 -9.72712e-08
 0.0153442 -6.74505e-08
 0.0172484 -3.00578e-08
 0.0193858 8.41434e-09
 0.0217849 5.20425e-08
 0.0244777 1.03967e-07
 0.0275001 1.3018e-07
 0.0308926 1.26381e-07
 0.0347005 1.05548e-07
 0.0389746 4.6031e-08
 0.0437719 1.3547e-08
 0.0491566 7.89758e-08
 0.0552005 1.37967e-07
 0.0619844 6.52387e-08
 0.0695988 4.92454e-08
 0.0781455 1.49075e-07
 0.0877386 2.66807e-07
 0.0985062 3.27902e-07
  0.110592 5.8381e-07
  0.124158 7.89647e-07
  0.139384 9.81776e-07
  0.156474 9.6464e-07
  0.175657 1.26355e-06
  0.197189 1.11907e-06
  0.221357 8.35023e-07
  0.248483 1.31637e-06
  0.278931 1.52125e-06
  0.314615 1.06916e-06
   0.35378 1.12548e-06
  0.392945 4.0818e-07
   0.43211 -6.13628e-07
  0.471275 9.63171e-07
   0.51044 1.77693e-07
  0.549604 1.5852e-06
  0.588769 9.87198e-07
  0.627934 1.25349e-06
  0.667099 1.96256e-06
  0.706264 1.18358e-06
  0.745429 1.49584e-06
  0.784593 1.77612e-06
  0.823758 2.19017e-06
  0.862923 2.09187e-06
  0.902088 1.63569e-06
  0.941253 1.63646e-06
  0.980418 1.38593e-06
   1.01958 1.53178e-06
   1.05875 1.9851e-06
   1.09791 1.8183e-06
   1.13708 2.33028e-06
   1.17624 2.68996e-06
   1.21541 2.99141e-06
   1.25457 3.64566e-06
   1.29374 3.54392e-06
    1.3329 3.4199e-06
   1.37207 3.13082e-06
   1.41123 2.85199e-06
    1.4504 1.00324e-06
   1.48956 1.2992e-06
   1.52873 1.02519e-06
   1.56789 1.90174e-06
   1.60706 2.05125e-06
   1.64622 3.5715e-06
   1.68539 3.86275e-06
   1.72107 3.47712e-06
   1.75152 2.70146e-06
   1.77865 2.67836e-06
   1.80281 2.02907e-06
   1.82434 2.24015e-06
   1.84353 2.41314e-06
   1.86062 2.48101e-06
   1.87584 2.87147e-06
   1.88941 3.32599e-06
    1.9015 3.74129e-06
   1.91226 4.04362e-06
   1.92186 4.10671e-06
    1.9304 4.19629e-06
   1.93802 4.25201e-06
    1.9448 4.23763e-06
   1.95084 4.06982e-06
   1.95623 3.93722e-06
   1.96103 3.77762e-06
    1.9653 3.50779e-06
   1.96911 3.24626e-06
    1.9725 2.96639e-06
   1.97552 2.70143e-06
   1.97822 2.45508e-06
   1.98061 2.21731e-06
   1.98275 1.96074e-06
   1.98466 1.70767e-06
   1.98635 1.45468e-06
   1.98786 1.22381e-06
   1.98921 1.00187e-06
   1.99041 8.13004e-07
   1.99148 6.38103e-07
   1.99243 5.01425e-07
   1.99333 3.79065e-07
   1.99421 2.67962e-07
    1.9951 1.7653e-07
     1.996 1.03551e-07
   1.99689 5.21899e-08
   1.99777 1.99604e-08
   1.99867 4.41473e-09
   1.99956 1.74308e-10
         2          0
