         0          0
  0.000445 -1.87026e-09
  0.001335 -5.80927e-10
  0.002225 2.97069e-08
  0.003115 1.06962e-07
  0.004005 2.36584e-07
  0.004895 4.08337e-07
  0.005785 5.96482e-07
  0.006675 7.66839e-07
0.00756867 8.8846e-07
0.00852095 9.39455e-07
0.00958982 8.81749e-07
 0.0107896 6.73935e-07
 0.0121362 2.9613e-07
 0.0136477 -2.47792e-07
 0.0153442 -8.92423e-07
 0.0172484 -1.51405e-06
 0.0193858 -1.94824e-06
 0.0217849 -2.09882e-06
 0.0244777 -1.91517e-06
 0.0275001 -1.28876e-06
 0.0308926 -4.10051e-07
 0.0347005 4.4435e-07
 0.0389746 1.36526e-06
 0.0437719 2.2789e-06
 0.0491566 2.83135e-06
 0.0552005 2.93451e-06
 0.0619844 2.95283e-06
 0.0695988 2.66888e-06
 0.0781455 1.90998e-06
 0.0877386 1.45211e-06
 0.0985062 6.14166e-07
  0.110592 2.00056e-07
  0.124158 -4.85891e-07
  0.139384 -7.79778e-07
  0.156474 -9.62581e-07
  0.175657 -1.52767e-06
  0.197189 -4.9245e-06
  0.221357 -9.14905e-06
  0.248483 -1.19778e-05
  0.278931 -1.79051e-05
  0.314615 -1.82829e-05
   0.35378 -1.59267e-05
  0.392945 -8.92275e-06
   0.43211 -3.75854e-06
  0.471275 -1.04947e-05
   0.51044 -1.21093e-05
  0.549604 -1.71773e-05
  0.588769 -1.98146e-05
  0.627934 -2.08477e-05
  0.667099 -2.41902e-05
  0.706264 -2.30771e-05
  0.745429 -1.89637e-05
  0.784593 -1.63388e-05
  0.823758 -1.20227e-05
  0.862923 -5.01822e-06
  0.902088 1.52074e-06
  0.941253 6.0604e-06
  0.980418 7.87189e-06
   1.01958 6.28885e-06
   1.05875 4.84423e-06
   1.09791 7.18841e-06
   1.13708 1.01314e-05
   1.17624 1.46411e-05
   1.21541 1.68667e-05
   1.25457 1.44653e-05
   1.29374 1.73948e-05
    1.3329 1.93311e-05
   1.37207 1.78689e-05
   1.41123 1.64554e-05
    1.4504 1.64216e-05
   1.48956 1.5972e-05
   1.52873 1.79407e-05
   1.56789 1.76583e-05
   1.60706 1.76303e-05
   1.64622 1.39475e-05
   1.68539 8.13806e-06
   1.72107 5.82211e-06
   1.75152 4.57471e-06
   1.77865 6.1973e-06
   1.80281 4.7548e-06
   1.82434 2.78782e-06
   1.84353 -4.95442e-07
   1.86062 -2.66106e-06
   1.87584 -2.34289e-06
   1.88941 -2.17231e-06
    1.9015 -3.0162e-06
   1.91226 -3.79692e-06
   1.92186 -5.30489e-06
    1.9304 -6.6215e-06
   1.93802 -7.80955e-06
    1.9448 -8.41497e-06
   1.95084 -8.17028e-06
   1.95623 -6.64854e-06
   1.96103 -4.39221e-06
    1.9653 -2.40387e-06
   1.96911 -5.47918e-07
    1.9725 1.37407e-06
   1.97552 3.50858e-06
   1.97822 5.81544e-06
   1.98061 8.07987e-06
   1.98275 1.00726e-05
   1.98466 1.16234e-05
   1.98635 1.2575e-05
   1.98786 1.28329e-05
   1.98921  1.241e-05
   1.99041 1.14308e-05
   1.99148 1.00746e-05
   1.99243 8.53547e-06
   1.99333 6.89143e-06
   1.99421 5.20085e-06
    1.9951 3.60371e-06
     1.996 2.23764e-06
   1.99689 1.19686e-06
   1.99777 5.11547e-07
   1.99867 1.4488e-07
   1.99956 1.11968e-08
         2          0
