         0   0.163581
  0.000445   0.163688
  0.001335   0.164066
  0.002225   0.164331
  0.003115   0.163539
  0.004005   0.161068
  0.004895   0.156311
  0.005785   0.148862
  0.006675   0.138789
0.00756867    0.12549
0.00852095    0.10797
0.00958982  0.0847411
 0.0107896   0.055312
 0.0121362  0.0224437
 0.0136477 -0.0113699
 0.0153442 -0.0417515
 0.0172484 -0.0624907
 0.0193858 -0.0713256
 0.0217849 -0.0684949
 0.0244777 -0.0536179
 0.0275001 -0.0235197
 0.0308926  0.0118772
 0.0347005  0.0339871
 0.0389746  0.0410449
 0.0437719  0.0488224
 0.0491566   0.069027
 0.0552005   0.085951
 0.0619844  0.0827212
 0.0695988  0.0731761
 0.0781455  0.0570057
 0.0877386  0.0253325
 0.0985062  0.0014745
  0.110592 -0.00248509
  0.124158 0.000340175
  0.139384 -0.00349327
  0.156474 -0.0159029
  0.175657 -0.0363469
  0.197189 -0.0379274
  0.221357 -0.0184303
  0.248483 -0.0140987
  0.278931 0.00334583
  0.314615  0.0184164
   0.35378 0.00437216
  0.392945 0.00355116
   0.43211 0.00488993
  0.471275 -0.0165991
   0.51044 -0.0222616
  0.549604 -0.0046799
  0.588769 0.00527142
  0.627934  0.0125826
  0.667099 0.00658512
  0.706264 -0.00734848
  0.745429 -0.00057039
  0.784593  0.0169789
  0.823758  0.0151203
  0.862923 -0.00258356
  0.902088 -0.0147478
  0.941253 -0.0112103
  0.980418 -0.00332582
   1.01958 -0.00653535
   1.05875 0.00127514
   1.09791   0.011103
   1.13708 0.00371489
   1.17624 0.00103004
   1.21541 0.00190808
   1.25457 -0.00700812
   1.29374 -0.00601977
    1.3329  0.0130108
   1.37207  0.0338986
   1.41123  0.0395577
    1.4504  0.0198529
   1.48956 -0.0165237
   1.52873 -0.0648505
   1.56789 -0.0557074
   1.60706  -0.014518
   1.64622 -0.00808461
   1.68539 0.00221043
   1.72107 -0.00175309
   1.75152 -0.00655657
   1.77865 -0.00213261
   1.80281 0.00513426
   1.82434  0.0123407
   1.84353 0.00061378
   1.86062 -0.00547465
   1.87584 0.00253569
   1.88941   0.003311
    1.9015 -0.00384818
   1.91226 0.00831596
   1.92186  0.0333443
    1.9304  0.0418737
   1.93802  0.0327594
    1.9448  0.0233388
   1.95084  0.0217896
   1.95623  0.0200195
   1.96103  0.0188392
    1.9653  0.0202247
   1.96911  0.0178454
    1.9725  0.0072972
   1.97552 -0.0102282
   1.97822 -0.0315459
   1.98061  -0.052003
   1.98275 -0.0674547
   1.98466 -0.0804616
   1.98635 -0.0923513
   1.98786 -0.0992895
   1.98921 -0.0971921
   1.99041 -0.0858977
   1.99148 -0.0698959
   1.99243 -0.0538375
   1.99333  -0.039589
   1.99421 -0.0284394
    1.9951 -0.0213143
     1.996 -0.0183086
   1.99689 -0.0186764
   1.99777 -0.0209779
   1.99867 -0.0236035
   1.99956  -0.025183
         2 -0.0255615
