         0  0.0162886
  0.000445 0.00879234
  0.001335 -0.00480297
  0.002225  -0.017238
  0.003115 -0.0290399
  0.004005  -0.039273
  0.004895  -0.046068
  0.005785  -0.048521
  0.006675 -0.0468515
0.00756867  -0.041287
0.00852095 -0.0322084
0.00958982 -0.0204819
 0.0107896 -0.00715269
 0.0121362 0.00573872
 0.0136477  0.0150199
 0.0153442  0.0182687
 0.0172484  0.0166626
 0.0193858  0.0136384
 0.0217849  0.0102275
 0.0244777 0.00697885
 0.0275001 0.00454703
 0.0308926 -0.00108197
 0.0347005 -0.0115923
 0.0389746 -0.0190349
 0.0437719 -0.0210675
 0.0491566 -0.0176298
 0.0552005 -0.0121133
 0.0619844 -0.00459382
 0.0695988 0.000117146
 0.0781455 -0.000604242
 0.0877386 1.55567e-05
 0.0985062 0.00157919
  0.110592  0.0034467
  0.124158 0.00325293
  0.139384 0.00360599
  0.156474  0.0038986
  0.175657 0.00321247
  0.197189 0.00219307
  0.221357 0.00131042
  0.248483 0.00159802
  0.278931 -0.000141758
  0.314615 0.00034374
   0.35378 0.000289822
  0.392945 0.000648383
   0.43211 -8.82568e-05
  0.471275 -0.00257413
   0.51044 -0.00263801
  0.549604 -0.00211367
  0.588769 -0.00185631
  0.627934 -0.00142116
  0.667099 -0.000230503
  0.706264 0.00027939
  0.745429 0.000142291
  0.784593 0.000792019
  0.823758 0.000203493
  0.862923 0.000219239
  0.902088 0.000152515
  0.941253 -0.000211457
  0.980418 0.000350275
   1.01958 -6.23133e-05
   1.05875 -0.000421193
   1.09791 -0.000101554
   1.13708 -0.000835533
   1.17624 -0.000642898
   1.21541 -0.00044041
   1.25457 -0.000991425
   1.29374 -0.000773121
    1.3329 0.000276934
   1.37207 0.000825169
   1.41123 0.000819896
    1.4504 0.00026996
   1.48956 -0.00118736
   1.52873 -0.00216382
   1.56789 -0.0027782
   1.60706 -0.00367591
   1.64622 -0.00138781
   1.68539 0.000105639
   1.72107 0.000565621
   1.75152 -4.73913e-05
   1.77865 -0.0006873
   1.80281 -0.00206506
   1.82434 -0.00229207
   1.84353 -0.00330043
   1.86062 -0.00558018
   1.87584 -0.00524581
   1.88941 -0.00375564
    1.9015 -0.00338638
   1.91226 -0.00281319
   1.92186 -0.00663625
    1.9304 -0.0113248
   1.93802 -0.0170793
    1.9448 -0.0224486
   1.95084 -0.0263068
   1.95623 -0.0239302
   1.96103  -0.013753
    1.9653 -0.00711039
   1.96911 -0.00408902
    1.9725 0.000405785
   1.97552 0.00703334
   1.97822  0.0147935
   1.98061   0.023847
   1.98275   0.035872
   1.98466  0.0500395
   1.98635  0.0624988
   1.98786  0.0681549
   1.98921  0.0623459
   1.99041  0.0428372
   1.99148  0.0103721
   1.99243 -0.0319819
   1.99333 -0.0811238
   1.99421   -0.13062
    1.9951  -0.170803
     1.996  -0.191707
   1.99689  -0.187467
   1.99777   -0.15924
   1.99867  -0.115793
   1.99956 -0.0710765
         2  -0.052932
