         0  0.0112184
  0.000445  0.0111052
  0.001335  0.0108741
  0.002225  0.0105929
  0.003115  0.0101235
  0.004005 0.00962536
  0.004895  0.0090676
  0.005785 0.00846701
  0.006675 0.00819044
0.00756867 0.00818502
0.00852095 0.00825847
0.00958982 0.00822754
 0.0107896 0.00830134
 0.0121362 0.00874877
 0.0136477 0.00911997
 0.0153442 0.00940383
 0.0172484 0.00955213
 0.0193858 0.00915343
 0.0217849 0.00801787
 0.0244777 0.00579838
 0.0275001 0.00429032
 0.0308926  0.0035725
 0.0347005 0.00250697
 0.0389746 0.00155325
 0.0437719 0.000860996
 0.0491566 8.65381e-06
 0.0552005 -0.000758347
 0.0619844 -0.000499637
 0.0695988 0.000193151
 0.0781455 0.00116438
 0.0877386 0.00181522
 0.0985062 0.00126662
  0.110592 0.000335317
  0.124158 0.000752828
  0.139384 0.00151242
  0.156474 0.00166705
  0.175657 0.000903084
  0.197189 0.000384442
  0.221357 0.00118612
  0.248483  0.0027597
  0.278931 0.00381121
  0.314615 0.00366305
   0.35378 0.00478035
  0.392945 0.00498409
   0.43211 0.00214875
  0.471275 -0.00194136
   0.51044 -0.00204408
  0.549604 0.00117113
  0.588769 0.00265552
  0.627934 0.00311594
  0.667099 0.00330267
  0.706264 0.00252868
  0.745429 0.00249349
  0.784593  0.0031331
  0.823758  0.0027625
  0.862923 0.00222401
  0.902088 0.00111941
  0.941253 -0.000258365
  0.980418 -0.00187018
   1.01958 -0.00326595
   1.05875 -0.00392389
   1.09791 -0.00322542
   1.13708 -0.00310863
   1.17624 -0.00299233
   1.21541 -0.00192938
   1.25457 -0.00168263
   1.29374 -0.00130117
    1.3329 -0.00123955
   1.37207 0.000968781
   1.41123 0.00267988
    1.4504 0.00268457
   1.48956 0.00399422
   1.52873 0.00263588
   1.56789 -0.00142657
   1.60706 -0.00307059
   1.64622 -0.00151933
   1.68539 -0.000624217
   1.72107 -0.000198437
   1.75152 0.000499971
   1.77865 0.000745758
   1.80281 0.000700141
   1.82434 -0.000637605
   1.84353 -0.00247614
   1.86062 -0.00405539
   1.87584  -0.005026
   1.88941 -0.00464786
    1.9015 -0.00403526
   1.91226 -0.00342658
   1.92186 -0.00295422
    1.9304 -0.00307264
   1.93802 -0.00372685
    1.9448 -0.00460998
   1.95084 -0.00511271
   1.95623 -0.00621547
   1.96103 -0.00666068
    1.9653 -0.00672835
   1.96911 -0.0080631
    1.9725 -0.00977484
   1.97552   -0.01147
   1.97822 -0.0134848
   1.98061 -0.0156918
   1.98275 -0.0178166
   1.98466  -0.020644
   1.98635 -0.0242804
   1.98786  -0.028229
   1.98921 -0.0321617
   1.99041  -0.035708
   1.99148 -0.0387771
   1.99243 -0.0414344
   1.99333 -0.0436936
   1.99421 -0.0456333
    1.9951 -0.0471965
     1.996 -0.0483432
   1.99689 -0.0490481
   1.99777 -0.0493343
   1.99867 -0.0492871
   1.99956 -0.0490141
         2 -0.0488372
