         0 2.04057e-18
  0.000445 1.9517e-18
  0.001335 -1.90431e-18
  0.002225 -1.51823e-17
  0.003115 2.23432e-18
  0.004005 2.02116e-18
  0.004895 -7.27196e-18
  0.005785 -6.1795e-18
  0.006675 -1.66478e-17
0.00756867 -3.37808e-17
0.00852095 8.64864e-19
0.00958982 2.39475e-17
 0.0107896 -5.44009e-19
 0.0121362 3.84059e-17
 0.0136477 -2.67919e-17
 0.0153442 -4.3332e-17
 0.0172484 3.01481e-17
 0.0193858 2.86982e-17
 0.0217849 -3.64153e-18
 0.0244777 -1.52856e-17
 0.0275001 -1.22036e-17
 0.0308926 -9.01279e-18
 0.0347005 -4.50973e-18
 0.0389746 -2.88158e-18
 0.0437719 3.23813e-17
 0.0491566 2.47832e-17
 0.0552005 3.11426e-17
 0.0619844 3.84584e-17
 0.0695988 -2.66979e-17
 0.0781455 -1.0258e-17
 0.0877386 1.52268e-17
 0.0985062 7.8557e-18
  0.110592 9.68364e-18
  0.124158 -1.84031e-17
  0.139384 3.3909e-18
  0.156474 1.20763e-17
  0.175657 -1.79726e-17
  0.197189 2.00431e-17
  0.221357 3.17011e-17
  0.248483 -7.49085e-18
  0.278931 -3.02279e-17
  0.314615 1.75902e-17
   0.35378 -1.56053e-17
  0.392945 2.3316e-17
   0.43211 -1.05713e-17
  0.471275 -1.73728e-17
   0.51044 -3.14519e-17
  0.549604 -4.64857e-18
  0.588769 -2.42433e-17
  0.627934 -2.74152e-17
  0.667099 4.71936e-17
  0.706264 1.72225e-17
  0.745429 -4.91274e-19
  0.784593 -3.48793e-17
  0.823758 -1.11267e-17
  0.862923 4.98941e-18
  0.902088 8.03458e-18
  0.941253 -1.59418e-17
  0.980418 -1.67695e-17
   1.01958 -2.9814e-17
   1.05875 3.07493e-17
   1.09791 -2.30534e-17
   1.13708 2.83241e-17
   1.17624 -5.39899e-17
   1.21541 1.30242e-17
   1.25457 -1.25698e-17
   1.29374 2.40276e-17
    1.3329 4.01679e-17
   1.37207 -2.94217e-17
   1.41123 -1.20952e-17
    1.4504 -2.14585e-19
   1.48956 2.98042e-17
   1.52873 1.57295e-17
   1.56789 -1.42911e-17
   1.60706 9.41694e-17
   1.64622 -1.92317e-17
   1.68539 -1.25718e-17
   1.72107 3.3664e-17
   1.75152 1.76315e-17
   1.77865 2.94567e-17
   1.80281 1.10284e-17
   1.82434 -1.93849e-17
   1.84353 -2.39836e-18
   1.86062 1.18683e-17
   1.87584 7.03798e-18
   1.88941 5.07455e-18
    1.9015 2.81419e-17
   1.91226 1.40135e-17
   1.92186 -7.30416e-18
    1.9304 -3.22439e-17
   1.93802 2.7861e-17
    1.9448 2.8274e-17
   1.95084 3.8749e-17
   1.95623 -1.39699e-17
   1.96103 -1.51168e-17
    1.9653 -7.99139e-18
   1.96911 -1.90004e-17
    1.9725 -2.56106e-17
   1.97552 5.44254e-17
   1.97822 -9.9869e-17
   1.98061 -6.06848e-18
   1.98275 -3.18567e-17
   1.98466 2.24805e-16
   1.98635 8.17346e-17
   1.98786 -2.71836e-16
   1.98921 -3.45279e-18
   1.99041 -6.83587e-17
   1.99148 -3.88534e-17
   1.99243 3.36227e-16
   1.99333 -6.44307e-17
   1.99421 5.34395e-17
    1.9951 -5.29488e-17
     1.996 1.01836e-16
   1.99689 -2.40751e-16
   1.99777 5.96312e-17
   1.99867 -5.84666e-17
   1.99956 -1.40302e-17
         2 -1.47511e-17
