         0 4.12223e-19
  0.000445 -2.27629e-17
  0.001335 -5.91394e-17
  0.002225 7.95053e-17
  0.003115 2.34746e-16
  0.004005 1.73639e-16
  0.004895 4.98446e-17
  0.005785 2.14619e-16
  0.006675 1.42109e-16
0.00756867 9.6243e-17
0.00852095 -9.13047e-17
0.00958982 7.21796e-16
 0.0107896 -2.4138e-16
 0.0121362 4.25029e-16
 0.0136477 9.93579e-16
 0.0153442 7.34501e-16
 0.0172484 1.21109e-15
 0.0193858 1.5023e-15
 0.0217849 1.06571e-15
 0.0244777 4.9825e-16
 0.0275001 8.40563e-16
 0.0308926 8.34026e-16
 0.0347005 2.19806e-16
 0.0389746 3.37756e-16
 0.0437719 8.13838e-17
 0.0491566 -2.57865e-16
 0.0552005 -6.5782e-16
 0.0619844 -1.85674e-16
 0.0695988  8.054e-17
 0.0781455 -2.71339e-17
 0.0877386 -8.63754e-18
 0.0985062 -1.73006e-17
  0.110592 3.21326e-17
  0.124158 2.59561e-16
  0.139384 6.25278e-18
  0.156474 2.06237e-16
  0.175657 -8.32667e-19
  0.197189 5.13234e-17
  0.221357 2.73936e-17
  0.248483 6.93351e-17
  0.278931 -9.42468e-17
  0.314615 4.59899e-17
   0.35378 4.78995e-17
  0.392945 1.17031e-16
   0.43211 7.65166e-18
  0.471275 1.76703e-17
   0.51044 -4.17666e-18
  0.549604 -5.40079e-17
  0.588769 -2.48712e-17
  0.627934 9.07807e-17
  0.667099 -1.04783e-17
  0.706264 -4.6867e-17
  0.745429 1.14078e-16
  0.784593 6.35159e-17
  0.823758 -2.71583e-17
  0.862923 -5.01577e-17
  0.902088 8.61533e-18
  0.941253 6.60805e-18
  0.980418 -3.49343e-17
   1.01958 2.2361e-17
   1.05875 8.98565e-17
   1.09791 9.29701e-18
   1.13708 2.09432e-17
   1.17624 -5.41078e-17
   1.21541 -3.06422e-18
   1.25457 2.55174e-17
   1.29374 -3.9968e-18
    1.3329 -3.21076e-17
   1.37207 1.10134e-18
   1.41123 2.71028e-16
    1.4504 8.48122e-17
   1.48956 -2.67169e-16
   1.52873 -6.19371e-17
   1.56789 -8.6815e-17
   1.60706 6.38711e-17
   1.64622 1.64269e-16
   1.68539 1.00588e-16
   1.72107 -1.45581e-16
   1.75152 1.68691e-16
   1.77865 4.34763e-18
   1.80281 3.18501e-17
   1.82434 4.74181e-16
   1.84353 2.53844e-16
   1.86062 -1.5941e-16
   1.87584 8.36442e-17
   1.88941 4.25926e-16
    1.9015 -2.57749e-17
   1.91226 3.18821e-16
   1.92186 -2.02736e-16
    1.9304 -2.50147e-16
   1.93802 -4.74039e-16
    1.9448 -2.64819e-16
   1.95084 -1.23899e-15
   1.95623 -1.27791e-16
   1.96103 2.16589e-15
    1.9653 -3.7657e-16
   1.96911 5.50839e-16
    1.9725 -1.56218e-15
   1.97552 1.09708e-16
   1.97822 -3.44578e-16
   1.98061 -2.58552e-15
   1.98275 5.60295e-15
   1.98466 7.1374e-17
   1.98635 -6.24052e-15
   1.98786 6.29335e-15
   1.98921 -1.12065e-15
   1.99041 -1.2653e-15
   1.99148 -3.29321e-15
   1.99243 9.22512e-15
   1.99333 -7.70148e-15
   1.99421 7.21063e-15
    1.9951 -3.30023e-15
     1.996 -6.03723e-15
   1.99689 4.16283e-15
   1.99777 1.63243e-15
   1.99867 -6.60716e-16
   1.99956 -3.80097e-16
         2 -4.38201e-16
