         0 -8.2305e-05
  0.000445 -8.94965e-05
  0.001335 -0.000271946
  0.002225 -0.00012333
  0.003115 0.000653383
  0.004005 0.00227516
  0.004895 0.00488943
  0.005785  0.0085712
  0.006675  0.0133606
0.00756867  0.0191913
0.00852095  0.0263456
0.00958982  0.0350104
 0.0107896  0.0445986
 0.0121362  0.0539115
 0.0136477  0.0611067
 0.0153442  0.0645277
 0.0172484  0.0631438
 0.0193858  0.0567017
 0.0217849  0.0458341
 0.0244777  0.0321063
 0.0275001  0.0190135
 0.0308926 0.00785204
 0.0347005 -0.00145069
 0.0389746 -0.00707003
 0.0437719 -0.0080661
 0.0491566 -0.00741682
 0.0552005 -0.00728826
 0.0619844 -0.00617383
 0.0695988 -0.00450384
 0.0781455 -0.00262815
 0.0877386 -0.000780325
 0.0985062 -0.000118114
  0.110592 -0.00118779
  0.124158 -0.00229541
  0.139384 -0.00199592
  0.156474 0.000201276
  0.175657 0.00137668
  0.197189 0.00165702
  0.221357 0.00201829
  0.248483 0.00232191
  0.278931 0.00285641
  0.314615  0.0024563
   0.35378 0.00222923
  0.392945 0.00266952
   0.43211 0.00129982
  0.471275 -0.00123849
   0.51044 -0.000885257
  0.549604 -5.88747e-05
  0.588769 0.000731544
  0.627934 0.00160987
  0.667099 0.00235725
  0.706264 0.00216633
  0.745429 0.00229558
  0.784593 0.00228081
  0.823758 0.00166127
  0.862923 0.00108971
  0.902088 9.98971e-05
  0.941253 -0.000526554
  0.980418 -0.00121644
   1.01958 -0.00172268
   1.05875 -0.00167657
   1.09791 -0.00129086
   1.13708 -0.000979067
   1.17624 -0.00104434
   1.21541 -0.000415996
   1.25457 0.000208012
   1.29374 0.00133774
    1.3329 0.00130816
   1.37207 0.00143619
   1.41123 0.00188987
    1.4504 0.00234947
   1.48956 0.00267907
   1.52873 0.00272693
   1.56789  0.0019472
   1.60706 0.000501587
   1.64622 -0.00215383
   1.68539 -0.00300171
   1.72107 -0.00177986
   1.75152 -0.00186473
   1.77865 -0.00241563
   1.80281 -0.00185555
   1.82434 -0.00274148
   1.84353 -0.00388798
   1.86062 -0.00493495
   1.87584 -0.00556952
   1.88941 -0.00416199
    1.9015 -0.00368288
   1.91226 -0.00407023
   1.92186 -0.00250228
    1.9304 -0.00120277
   1.93802 1.21178e-05
    1.9448 0.00124881
   1.95084 0.000702425
   1.95623 -0.00273002
   1.96103 -0.00633738
    1.9653 -0.00988695
   1.96911 -0.0149756
    1.9725 -0.0212207
   1.97552 -0.0283754
   1.97822 -0.0365595
   1.98061  -0.046029
   1.98275 -0.0560764
   1.98466 -0.0656817
   1.98635 -0.0732255
   1.98786 -0.0770661
   1.98921  -0.076461
   1.99041 -0.0717163
   1.99148 -0.0638259
   1.99243 -0.0542919
   1.99333 -0.0436423
   1.99421 -0.0322247
    1.9951 -0.0211556
     1.996 -0.0113836
   1.99689 -0.00378661
   1.99777 0.000941197
   1.99867 0.00251832
   1.99956  0.0013124
         2 0.00153566
