  0.000445 0.000318376
  0.001335 0.000706301
  0.002225 0.000916663
  0.003115 0.00100807
  0.004005  0.0010217
  0.004895 0.000986046
  0.005785 0.000920445
  0.006675 0.000836964
0.00756867 0.000741969
0.00852095 0.000633885
0.00958982 0.000509222
 0.0107896 0.000367839
 0.0121362 0.000209161
 0.0136477 3.32649e-05
 0.0153442 -0.000157889
 0.0172484 -0.000358837
 0.0193858 -0.000559441
 0.0217849 -0.000745131
 0.0244777 -0.000898827
 0.0275001 -0.00100413
 0.0308926 -0.00104897
 0.0347005 -0.00102889
 0.0389746 -0.000948618
 0.0437719 -0.000821542
 0.0491566 -0.000667307
 0.0552005 -0.000507901
 0.0619844 -0.000363007
 0.0695988 -0.000246607
 0.0781455 -0.000165596
 0.0877386 -0.000118952
 0.0985062 -9.82246e-05
  0.110592 -9.27179e-05
  0.124158 -9.20261e-05
  0.139384 -9.10529e-05
  0.156474 -8.75185e-05
  0.175657 -8.06758e-05
  0.197189 -7.18974e-05
  0.221357 -6.37911e-05
  0.248483 -5.36443e-05
  0.278931 -4.60449e-05
  0.314615 -4.67559e-05
   0.35378 -3.23501e-05
  0.392945 -2.25467e-05
   0.43211 -1.82211e-05
  0.471275 -1.45706e-05
   0.51044 -1.59632e-05
  0.549604 -1.705e-05
  0.588769 -1.44725e-05
  0.627934 -1.2139e-05
  0.667099 -1.03795e-05
  0.706264 -1.03077e-05
  0.745429 -1.00377e-05
  0.784593 -9.81956e-06
  0.823758 -9.34379e-06
  0.862923 -9.28614e-06
  0.902088 -9.69678e-06
  0.941253 -9.88601e-06
  0.980418 -9.98484e-06
   1.01958 -9.84446e-06
   1.05875 -9.52056e-06
   1.09791 -9.1105e-06
   1.13708 -9.31448e-06
   1.17624 -9.13066e-06
   1.21541 -9.32462e-06
   1.25457 -1.02841e-05
   1.29374 -1.17434e-05
    1.3329 -1.17625e-05
   1.37207 -1.27419e-05
   1.41123 -1.27934e-05
    1.4504 -1.18757e-05
   1.48956 -1.18772e-05
   1.52873 -1.19333e-05
   1.56789 -1.61273e-05
   1.60706 -2.16193e-05
   1.64622 -3.19595e-05
   1.68539 -4.7533e-05
   1.72107 -4.91727e-05
   1.75152 -5.58661e-05
   1.77865 -6.60664e-05
   1.80281 -7.45149e-05
   1.82434 -8.33514e-05
   1.84353 -8.82913e-05
   1.86062 -9.02587e-05
   1.87584 -9.00744e-05
   1.88941 -9.09923e-05
    1.9015 -9.78388e-05
   1.91226 -0.000118406
   1.92186 -0.000163806
    1.9304 -0.000243412
   1.93802 -0.000359982
    1.9448 -0.000506659
   1.95084 -0.00066843
   1.95623 -0.000824982
   1.96103 -0.000953839
    1.9653 -0.00103468
   1.96911 -0.00105413
    1.9725 -0.00100812
   1.97552 -0.000901668
   1.97822 -0.000747028
   1.98061 -0.000560666
   1.98275 -0.000359671
   1.98466 -0.000158547
   1.98635  3.267e-05
   1.98786 0.000208577
   1.98921 0.000367242
   1.99041 0.000508585
   1.99148 0.00063318
   1.99243 0.000741178
   1.99333 0.000836081
   1.99421 0.000919473
    1.9951 0.000985013
     1.996 0.00102066
   1.99689  0.0010071
   1.99777 0.000915861
   1.99867 0.000705758
   1.99956 0.000318176
