         0          0
  0.000445 1.85383e-07
  0.001335 5.35057e-07
  0.002225 7.5978e-07
  0.003115 7.61583e-07
  0.004005 6.65503e-07
  0.004895 5.34516e-07
  0.005785 3.99797e-07
  0.006675 3.4269e-07
0.00756867 4.32966e-07
0.00852095 4.7686e-07
0.00958982 2.77545e-07
 0.0107896 -1.9054e-07
 0.0121362 -9.2699e-07
 0.0136477 -1.99514e-06
 0.0153442 -3.5283e-06
 0.0172484 -5.68129e-06
 0.0193858 -8.49999e-06
 0.0217849 -1.17819e-05
 0.0244777 -1.50581e-05
 0.0275001 -1.76748e-05
 0.0308926 -1.8968e-05
 0.0347005 -1.84938e-05
 0.0389746 -1.60793e-05
 0.0437719 -1.19987e-05
 0.0491566 -6.84173e-06
 0.0552005 -1.68204e-06
 0.0619844 2.64245e-06
 0.0695988 5.4754e-06
 0.0781455 5.94768e-06
 0.0877386 4.87153e-06
 0.0985062 2.34687e-06
  0.110592 4.45413e-08
  0.124158 -3.91582e-06
  0.139384 -3.46158e-06
  0.156474 -6.41376e-06
  0.175657 -3.7585e-06
  0.197189 -1.18845e-05
  0.221357 2.72541e-06
  0.248483 -2.36039e-05
  0.278931 1.40154e-05
  0.314615 2.51883e-06
   0.35378 -3.81147e-05
  0.392945 1.73807e-05
   0.43211 -2.19353e-05
  0.471275 1.00998e-05
   0.51044 -1.26181e-05
  0.549604 5.54003e-06
  0.588769 -1.03089e-05
  0.627934 3.99058e-06
  0.667099 -4.92806e-06
  0.706264 2.61738e-06
  0.745429 -3.892e-06
  0.784593 1.9546e-06
  0.823758 -4.79456e-06
  0.862923 3.52124e-06
  0.902088 -2.97677e-06
  0.941253 2.03091e-06
  0.980418 -8.04095e-07
   1.01958 8.91312e-07
   1.05875 1.58712e-07
   1.09791 2.46739e-07
   1.13708 -2.06015e-06
   1.17624 2.07256e-06
   1.21541 -9.32016e-07
   1.25457 3.46889e-06
   1.29374 -1.51295e-06
    1.3329 3.55301e-06
   1.37207 5.10602e-07
   1.41123 5.56032e-06
    1.4504 -5.59887e-06
   1.48956 1.45892e-05
   1.52873 -1.03104e-05
   1.56789 2.10893e-05
   1.60706 -1.70821e-05
   1.64622 3.74235e-05
   1.68539 -1.98541e-06
   1.72107 -1.37001e-05
   1.75152 2.41812e-05
   1.77865 -3.32122e-06
   1.80281 1.26283e-05
   1.82434  2.917e-06
   1.84353 7.30818e-06
   1.86062 4.63808e-06
   1.87584 3.11105e-06
   1.88941 -8.87979e-08
    1.9015 -2.1499e-06
   1.91226 -5.14261e-06
   1.92186 -6.08209e-06
    1.9304 -5.33346e-06
   1.93802 -2.70944e-06
    1.9448 1.55672e-06
   1.95084 6.89837e-06
   1.95623 1.20534e-05
   1.96103 1.61139e-05
    1.9653 1.84726e-05
   1.96911 1.89046e-05
    1.9725 1.76057e-05
   1.97552 1.50132e-05
   1.97822 1.17652e-05
   1.98061 8.50015e-06
   1.98275 5.69354e-06
   1.98466 3.53856e-06
   1.98635 2.00039e-06
   1.98786 9.31537e-07
   1.98921 1.93912e-07
   1.99041 -2.76129e-07
   1.99148 -4.76212e-07
   1.99243 -4.32679e-07
   1.99333 -3.42642e-07
   1.99421 -3.99509e-07
    1.9951 -5.34141e-07
     1.996 -6.65172e-07
   1.99689 -7.61351e-07
   1.99777 -7.59681e-07
   1.99867 -5.35074e-07
   1.99956 -1.85422e-07
         2          0
