         0          0
  0.000445 -3.73257e-08
  0.001335 -3.28125e-07
  0.002225 -8.9225e-07
  0.003115 -1.70242e-06
  0.004005 -2.71649e-06
  0.004895 -3.87886e-06
  0.005785 -5.12627e-06
  0.006675 -6.39484e-06
0.00756867 -7.63192e-06
0.00852095 -8.8628e-06
0.00958982 -1.00819e-05
 0.0107896 -1.12128e-05
 0.0121362 -1.21861e-05
 0.0136477 -1.29457e-05
 0.0153442 -1.3454e-05
 0.0172484 -1.36891e-05
 0.0193858 -1.36511e-05
 0.0217849 -1.33426e-05
 0.0244777 -1.27513e-05
 0.0275001 -1.18684e-05
 0.0308926 -1.06919e-05
 0.0347005 -9.31157e-06
 0.0389746 -7.98138e-06
 0.0437719 -6.95784e-06
 0.0491566 -6.22653e-06
 0.0552005 -5.67211e-06
 0.0619844 -4.89355e-06
 0.0695988 -3.62658e-06
 0.0781455 -2.12429e-06
 0.0877386 -1.11605e-06
 0.0985062 -4.59289e-07
  0.110592 -6.42652e-07
  0.124158 -1.1658e-06
  0.139384 -3.55926e-07
  0.156474 1.58041e-06
  0.175657 3.83089e-06
  0.197189 3.3381e-06
  0.221357 1.18737e-06
  0.248483 2.34107e-07
  0.278931 -1.14863e-06
  0.314615 -4.25733e-06
   0.35378 -8.90275e-06
  0.392945 -1.10432e-05
   0.43211 -1.00293e-05
  0.471275 -3.82074e-06
   0.51044 -2.4305e-07
  0.549604 2.85139e-06
  0.588769 8.05104e-07
  0.627934 -3.86773e-06
  0.667099 -7.31889e-06
  0.706264 -7.63424e-06
  0.745429 -7.46976e-06
  0.784593 -7.85811e-06
  0.823758 -7.68294e-06
  0.862923 -7.51662e-06
  0.902088 -5.91594e-06
  0.941253 -3.55889e-06
  0.980418 -2.95606e-06
   1.01958 -2.38236e-06
   1.05875 -9.79189e-07
   1.09791 -8.4759e-07
   1.13708 -2.22715e-06
   1.17624 -8.19285e-07
   1.21541 -1.32419e-06
   1.25457 -1.2741e-06
   1.29374 -1.54681e-07
    1.3329 1.1281e-07
   1.37207 -3.06246e-06
   1.41123 -8.07501e-06
    1.4504 -1.11165e-05
   1.48956 -7.40753e-06
   1.52873 -1.56363e-06
   1.56789 -5.69555e-07
   1.60706 6.77921e-07
   1.64622 2.64231e-06
   1.68539 -3.53022e-06
   1.72107 -3.54383e-06
   1.75152 9.80195e-07
   1.77865 4.49177e-06
   1.80281 5.17188e-06
   1.82434 4.53988e-06
   1.84353 2.92631e-06
   1.86062 1.59061e-06
   1.87584 9.26489e-07
   1.88941 -1.05861e-08
    1.9015 -9.67005e-07
   1.91226 -1.57241e-06
   1.92186 -1.46461e-06
    1.9304 -1.02855e-06
   1.93802 -9.44625e-07
    1.9448 -1.07718e-06
   1.95084 -1.04362e-06
   1.95623 -5.42951e-07
   1.96103  4.706e-07
    1.9653 1.64446e-06
   1.96911 2.62928e-06
    1.9725 3.23535e-06
   1.97552 3.60762e-06
   1.97822 3.8792e-06
   1.98061 4.05995e-06
   1.98275 4.15592e-06
   1.98466 4.1764e-06
   1.98635 4.12121e-06
   1.98786 3.99062e-06
   1.98921 3.79429e-06
   1.99041 3.54581e-06
   1.99148 3.25227e-06
   1.99243 2.91794e-06
   1.99333 2.53628e-06
   1.99421 2.09203e-06
    1.9951 1.60656e-06
     1.996 1.12128e-06
   1.99689 6.85621e-07
   1.99777 3.42554e-07
   1.99867 1.16972e-07
   1.99956 1.17467e-08
         2          0
