         0          0
  0.000445 3.71154e-11
  0.001335 1.23037e-09
  0.002225 5.52021e-09
  0.003115 1.45038e-08
  0.004005 2.89414e-08
  0.004895 4.87889e-08
  0.005785 7.33519e-08
  0.006675 1.01509e-07
0.00756867 1.31952e-07
0.00852095 1.65232e-07
0.00958982 2.01738e-07
 0.0107896 2.39154e-07
 0.0121362 2.75201e-07
 0.0136477 3.08527e-07
 0.0153442 3.39601e-07
 0.0172484 3.71311e-07
 0.0193858 4.07084e-07
 0.0217849 4.47468e-07
 0.0244777 4.88317e-07
 0.0275001 5.21135e-07
 0.0308926 5.40863e-07
 0.0347005 5.57054e-07
 0.0389746 5.76939e-07
 0.0437719 5.91477e-07
 0.0491566 5.9784e-07
 0.0552005 6.32302e-07
 0.0619844 6.40654e-07
 0.0695988 6.08975e-07
 0.0781455 6.00175e-07
 0.0877386 6.22854e-07
 0.0985062 6.11581e-07
  0.110592 6.02418e-07
  0.124158 6.58066e-07
  0.139384 6.44189e-07
  0.156474 7.30051e-07
  0.175657 6.69238e-07
  0.197189 5.9666e-07
  0.221357 5.55886e-07
  0.248483 7.84365e-07
  0.278931 1.06534e-06
  0.314615 8.65079e-07
   0.35378 1.77601e-06
  0.392945 6.53773e-07
   0.43211 1.76259e-06
  0.471275 1.89953e-06
   0.51044 1.29175e-06
  0.549604 1.18478e-06
  0.588769 6.82137e-07
  0.627934 1.06395e-06
  0.667099 3.57743e-07
  0.706264 8.77524e-07
  0.745429 6.73975e-07
  0.784593 5.49705e-07
  0.823758 4.81721e-07
  0.862923 5.5168e-07
  0.902088 6.05131e-07
  0.941253 5.8371e-07
  0.980418 4.48876e-07
   1.01958 5.19255e-07
   1.05875 4.50121e-07
   1.09791 6.20391e-07
   1.13708 6.32331e-07
   1.17624 6.10374e-07
   1.21541 6.23843e-07
   1.25457 5.62944e-07
   1.29374 4.24106e-07
    1.3329 2.89116e-07
   1.37207 8.75893e-08
   1.41123 2.3695e-07
    1.4504 -1.39525e-07
   1.48956 -2.12897e-07
   1.52873 -7.32185e-07
   1.56789 -2.95466e-07
   1.60706 -2.41854e-07
   1.64622 -8.16127e-07
   1.68539 -6.95825e-07
   1.72107 -4.92764e-07
   1.75152 -3.69958e-07
   1.77865 4.83503e-07
   1.80281 6.3865e-07
   1.82434 6.68383e-07
   1.84353 8.86037e-07
   1.86062 9.38646e-07
   1.87584 9.71721e-07
   1.88941 1.01931e-06
    1.9015 9.5845e-07
   1.91226 9.06965e-07
   1.92186 8.9663e-07
    1.9304 8.91761e-07
   1.93802 8.43341e-07
    1.9448 7.25166e-07
   1.95084 5.85857e-07
   1.95623 4.65921e-07
   1.96103 3.51886e-07
    1.9653 2.64657e-07
   1.96911 2.00902e-07
    1.9725 1.4252e-07
   1.97552 9.50188e-08
   1.97822 6.32011e-08
   1.98061 4.4004e-08
   1.98275 3.49769e-08
   1.98466 3.44787e-08
   1.98635 3.91846e-08
   1.98786 4.57797e-08
   1.98921 5.14575e-08
   1.99041 5.42864e-08
   1.99148 5.33828e-08
   1.99243 4.91379e-08
   1.99333 4.23219e-08
   1.99421 3.34831e-08
    1.9951 2.3839e-08
     1.996 1.48178e-08
   1.99689  7.632e-09
   1.99777 2.93064e-09
   1.99867 6.45087e-10
   1.99956 1.67438e-11
         2          0
