         0 2.55085e-19
  0.000445 7.33077e-19
  0.001335 3.25573e-18
  0.002225 -1.50612e-18
  0.003115 -5.15636e-18
  0.004005 5.7232e-18
  0.004895 6.8414e-18
  0.005785 1.33622e-17
  0.006675 2.00648e-17
0.00756867 2.96374e-18
0.00852095  1.978e-18
0.00958982 4.10165e-17
 0.0107896 4.59896e-17
 0.0121362 2.64494e-17
 0.0136477 2.66676e-18
 0.0153442 3.16525e-17
 0.0172484 1.32611e-17
 0.0193858 7.84484e-18
 0.0217849 -6.36435e-19
 0.0244777 -1.15727e-17
 0.0275001 2.44837e-17
 0.0308926 -1.47571e-17
 0.0347005 -6.42125e-19
 0.0389746 7.33691e-18
 0.0437719 2.85065e-17
 0.0491566 2.63108e-17
 0.0552005 8.25076e-18
 0.0619844 7.9492e-18
 0.0695988 1.61146e-17
 0.0781455 -1.29438e-17
 0.0877386 1.77419e-17
 0.0985062 8.08742e-18
  0.110592 5.60857e-18
  0.124158 -1.40329e-17
  0.139384 7.35884e-18
  0.156474 1.20087e-17
  0.175657 4.27408e-18
  0.197189 -1.8299e-17
  0.221357 3.77295e-17
  0.248483 -2.34694e-17
  0.278931 -8.18241e-18
  0.314615 -1.47715e-18
   0.35378 -2.54595e-17
  0.392945 2.01164e-17
   0.43211  1.499e-17
  0.471275 -2.64701e-17
   0.51044 -2.4056e-17
  0.549604 -1.08871e-18
  0.588769 -3.08096e-17
  0.627934 -1.75401e-17
  0.667099 4.09539e-17
  0.706264 2.56138e-18
  0.745429 -5.57959e-19
  0.784593 -3.14763e-17
  0.823758 -2.38904e-17
  0.862923 -3.2103e-18
  0.902088 1.31154e-17
  0.941253 -3.46542e-18
  0.980418 -1.92301e-17
   1.01958 -3.71043e-17
   1.05875 1.55114e-17
   1.09791 -1.08766e-17
   1.13708 1.24131e-17
   1.17624 -1.16062e-17
   1.21541 1.0641e-17
   1.25457 4.32534e-18
   1.29374 1.33128e-17
    1.3329 -2.26193e-17
   1.37207 -3.00353e-17
   1.41123 6.87095e-18
    1.4504 7.04796e-18
   1.48956 -7.54336e-19
   1.52873 -2.72539e-17
   1.56789 -1.94245e-17
   1.60706 8.92158e-17
   1.64622 8.15389e-19
   1.68539 -4.25715e-18
   1.72107 1.94082e-17
   1.75152 -9.95114e-18
   1.77865 4.34422e-18
   1.80281 3.97731e-18
   1.82434 9.6337e-18
   1.84353 -1.63585e-17
   1.86062 -2.94152e-17
   1.87584 1.53344e-17
   1.88941 1.80567e-17
    1.9015 -6.19942e-18
   1.91226 4.57856e-18
   1.92186 2.75112e-17
    1.9304 2.35122e-17
   1.93802 3.47401e-17
    1.9448 3.89394e-17
   1.95084 -2.49017e-17
   1.95623 3.65832e-17
   1.96103 9.59724e-17
    1.9653 -9.57845e-18
   1.96911 8.61569e-17
    1.9725 2.7009e-17
   1.97552 -8.47961e-17
   1.97822 4.77715e-17
   1.98061 1.42065e-16
   1.98275 -6.46114e-17
   1.98466 -1.28851e-16
   1.98635 -1.50334e-16
   1.98786 2.23815e-16
   1.98921 2.92132e-17
   1.99041 -1.88543e-16
   1.99148 2.0325e-16
   1.99243 -2.94358e-17
   1.99333 -5.90451e-17
   1.99421 -1.76351e-17
    1.9951 -2.56389e-16
     1.996 -3.92301e-17
   1.99689 9.30356e-17
   1.99777 1.1029e-16
   1.99867 -1.53631e-17
   1.99956 -5.39362e-18
         2 -5.93158e-18
