         0  -0.013419
  0.000445 -0.0134145
  0.001335 -0.0133822
  0.002225 -0.0132856
  0.003115 -0.0130947
  0.004005 -0.0127948
  0.004895 -0.0123868
  0.005785 -0.0118839
  0.006675  -0.011307
0.00756867 -0.0106783
0.00852095 -0.00998076
0.00958982 -0.00920138
 0.0107896 -0.00838197
 0.0121362 -0.00757267
 0.0136477 -0.00680709
 0.0153442 -0.00608958
 0.0172484 -0.00539703
 0.0193858 -0.00469556
 0.0217849 -0.00396541
 0.0244777 -0.00324053
 0.0275001 -0.00261011
 0.0308926 -0.00210024
 0.0347005 -0.0016272
 0.0389746 -0.00112081
 0.0437719 -0.00062587
 0.0491566 -0.000156313
 0.0552005 0.000320531
 0.0619844 0.000625181
 0.0695988 0.000735114
 0.0781455 0.000997519
 0.0877386 0.00146654
 0.0985062 0.00195114
  0.110592 0.00245979
  0.124158 0.00260324
  0.139384 0.00216116
  0.156474 0.00154134
  0.175657 0.000663139
  0.197189 -0.000188903
  0.221357 -0.000642898
  0.248483 -0.000467439
  0.278931 0.000749791
  0.314615 0.00151395
   0.35378  0.0012805
  0.392945  0.0012471
   0.43211 0.00203918
  0.471275 0.00172645
   0.51044 0.000508236
  0.549604 -0.0003647
  0.588769 -0.000280586
  0.627934 0.000665886
  0.667099 0.00101634
  0.706264 0.00111926
  0.745429 0.000936006
  0.784593 0.000893501
  0.823758 0.00100487
  0.862923 0.00123899
  0.902088 0.00159548
  0.941253 0.00172348
  0.980418 0.00171625
   1.01958 0.00180001
   1.05875 0.00198808
   1.09791 0.00232021
   1.13708 0.00228973
   1.17624 0.00183085
   1.21541 0.00156812
   1.25457 0.00165101
   1.29374 0.00183601
    1.3329 0.000607693
   1.37207 -3.89985e-05
   1.41123 0.000222091
    1.4504 -7.38527e-05
   1.48956 -0.000501096
   1.52873 -0.00116195
   1.56789 -0.0010828
   1.60706 -0.00109228
   1.64622 -0.00252253
   1.68539 -0.00488346
   1.72107 -0.00713443
   1.75152 -0.00641766
   1.77865 -0.00288984
   1.80281 -0.00130426
   1.82434 -0.00111707
   1.84353 -0.000135785
   1.86062 0.000872567
   1.87584 0.00141397
   1.88941 0.00158584
    1.9015 0.00140852
   1.91226 0.00108247
   1.92186 0.000938435
    1.9304 0.000980437
   1.93802 0.000837587
    1.9448 8.19415e-05
   1.95084 -0.00137838
   1.95623 -0.00326298
   1.96103 -0.00522361
    1.9653 -0.00700255
   1.96911 -0.00849938
    1.9725 -0.00976656
   1.97552 -0.0108371
   1.97822 -0.0116961
   1.98061  -0.012354
   1.98275 -0.0128154
   1.98466 -0.0130824
   1.98635 -0.0131887
   1.98786 -0.0131993
   1.98921  -0.013184
   1.99041 -0.0131927
   1.99148 -0.0132494
   1.99243 -0.0133551
   1.99333 -0.0135042
   1.99421 -0.0136886
    1.9951 -0.0138866
     1.996 -0.0140706
   1.99689 -0.0142182
   1.99777 -0.0143178
   1.99867 -0.0143702
   1.99956 -0.0143881
         2 -0.0143906
