         0   0.188494
  0.000445   0.185129
  0.001335    0.17856
  0.002225   0.169701
  0.003115   0.156681
  0.004005   0.139467
  0.004895   0.119472
  0.005785  0.0986855
  0.006675  0.0790878
0.00756867  0.0620667
0.00852095  0.0477231
0.00958982  0.0366093
 0.0107896  0.0291594
 0.0121362  0.0245339
 0.0136477   0.022048
 0.0153442  0.0217585
 0.0172484  0.0231979
 0.0193858  0.0242606
 0.0217849  0.0234941
 0.0244777  0.0212197
 0.0275001  0.0182348
 0.0308926  0.0164081
 0.0347005   0.017029
 0.0389746  0.0181752
 0.0437719  0.0167748
 0.0491566  0.0134474
 0.0552005   0.010155
 0.0619844    0.01006
 0.0695988 0.00998514
 0.0781455  0.0100444
 0.0877386  0.0108012
 0.0985062  0.0120703
  0.110592  0.0106616
  0.124158 0.00740711
  0.139384 0.00461154
  0.156474 0.00224001
  0.175657 0.000811415
  0.197189 0.000678563
  0.221357 0.000428838
  0.248483 0.000304074
  0.278931 0.00093995
  0.314615 0.00124842
   0.35378  0.0006647
  0.392945 0.000675699
   0.43211 0.00121199
  0.471275 0.00145529
   0.51044 0.00102908
  0.549604 0.000718853
  0.588769 0.00074769
  0.627934 0.000113234
  0.667099 -0.00100454
  0.706264 -0.00141711
  0.745429 -0.00161179
  0.784593 -0.00145182
  0.823758 -0.0010769
  0.862923 -0.000587973
  0.902088 0.000187225
  0.941253 0.000819052
  0.980418 0.000585713
   1.01958 9.95278e-06
   1.05875 -0.000555692
   1.09791 -0.000615437
   1.13708 -0.000358483
   1.17624 0.000654743
   1.21541 0.000694788
   1.25457 -0.000153444
   1.29374 -0.000736144
    1.3329 6.87061e-05
   1.37207 0.000368177
   1.41123 0.00022547
    1.4504 0.000354363
   1.48956 0.000648855
   1.52873 -1.36564e-05
   1.56789 0.000236624
   1.60706 0.00066262
   1.64622 0.00136752
   1.68539 0.00171137
   1.72107 0.00129616
   1.75152 0.00131548
   1.77865 0.00197599
   1.80281 0.00130789
   1.82434 0.000227465
   1.84353 -0.00133365
   1.86062 -0.00209483
   1.87584 -0.00380609
   1.88941 -0.00627168
    1.9015 -0.00799871
   1.91226 -0.00879604
   1.92186 -0.00823663
    1.9304 -0.00641204
   1.93802 -0.00754617
    1.9448 -0.0111361
   1.95084 -0.0146469
   1.95623 -0.0166448
   1.96103 -0.0148684
    1.9653 -0.00995939
   1.96911 -0.00476495
    1.9725 -0.00565644
   1.97552 -0.00825474
   1.97822 -0.00842644
   1.98061 -0.00773001
   1.98275 -0.00652294
   1.98466 -0.00583416
   1.98635 -0.00769447
   1.98786 -0.0128851
   1.98921 -0.0198523
   1.99041 -0.0262044
   1.99148 -0.0309498
   1.99243 -0.0349125
   1.99333 -0.0397696
   1.99421 -0.0469919
    1.9951 -0.0564285
     1.996 -0.0660907
   1.99689 -0.0730642
   1.99777 -0.0751219
   1.99867 -0.0717498
   1.99956 -0.0640712
         2 -0.0593271
