         0 0.000549098
  0.000445 0.000812049
  0.001335 0.00175953
  0.002225 0.00339355
  0.003115 0.00536278
  0.004005 0.00721364
  0.004895 0.00841167
  0.005785 0.00853017
  0.006675 0.00752651
0.00756867  0.0056148
0.00852095 0.00333214
0.00958982 0.00167268
 0.0107896 0.00121731
 0.0121362 0.000988939
 0.0136477 -4.86401e-05
 0.0153442 -0.00151331
 0.0172484 -0.00200483
 0.0193858 0.00199323
 0.0217849  0.0140391
 0.0244777  0.0327341
 0.0275001  0.0514976
 0.0308926  0.0638229
 0.0347005  0.0690788
 0.0389746  0.0716819
 0.0437719  0.0678366
 0.0491566  0.0494932
 0.0552005  0.0200185
 0.0619844 -0.00908242
 0.0695988 -0.0277742
 0.0781455 -0.0435739
 0.0877386 -0.0572701
 0.0985062  -0.057648
  0.110592  -0.057493
  0.124158 -0.0603383
  0.139384 -0.0536609
  0.156474  -0.030589
  0.175657 0.00243906
  0.197189  0.0090165
  0.221357 -0.00579007
  0.248483 0.00575608
  0.278931  0.0402593
  0.314615  0.0431832
   0.35378 0.000203856
  0.392945 -0.0191788
   0.43211 -0.00580621
  0.471275  0.0107331
   0.51044  0.0299992
  0.549604   0.021611
  0.588769 0.00525344
  0.627934 -0.00189206
  0.667099 -0.00144442
  0.706264  0.0111112
  0.745429  0.0106657
  0.784593 0.00985819
  0.823758 0.00916269
  0.862923 -0.00746657
  0.902088 -0.0151003
  0.941253 -0.00179135
  0.980418 0.00966134
   1.01958 0.00871118
   1.05875 0.00242968
   1.09791 -0.0129301
   1.13708  -0.019415
   1.17624 0.000386195
   1.21541 0.00921383
   1.25457 -0.000511629
   1.29374 0.00925223
    1.3329   0.011989
   1.37207 -0.0082241
   1.41123 -0.0251305
    1.4504 -0.0340425
   1.48956 -0.0248309
   1.52873 -0.00813518
   1.56789 -0.00592143
   1.60706 -0.0172989
   1.64622 -0.0255498
   1.68539  -0.010442
   1.72107  0.0216309
   1.75152  0.0438428
   1.77865  0.0419268
   1.80281  0.0136004
   1.82434 -0.00357385
   1.84353 -0.00495837
   1.86062 -0.0126973
   1.87584 -0.0156868
   1.88941 -0.00884075
    1.9015 0.000948064
   1.91226 -0.00175085
   1.92186 -0.00188477
    1.9304  0.0179065
   1.93802  0.0326148
    1.9448  0.0194856
   1.95084 -0.00216417
   1.95623 -0.0101341
   1.96103 -0.00779486
    1.9653 -0.00510635
   1.96911 -0.00145164
    1.9725 0.00621612
   1.97552  0.0167371
   1.97822  0.0273115
   1.98061  0.0331755
   1.98275  0.0319319
   1.98466  0.0240948
   1.98635  0.0121958
   1.98786 -0.000507899
   1.98921 -0.0120462
   1.99041 -0.0213018
   1.99148  -0.027515
   1.99243 -0.0308799
   1.99333 -0.0318117
   1.99421 -0.0305385
    1.9951  -0.027534
     1.996 -0.0235346
   1.99689 -0.0193804
   1.99777 -0.0157415
   1.99867 -0.0130861
   1.99956 -0.0117006
         2 -0.0113482
