         0 0.000480158
  0.000445 0.000473674
  0.001335 0.00137398
  0.002225  0.0022675
  0.003115 0.00310998
  0.004005 0.00377511
  0.004895  0.0041044
  0.005785  0.0039731
  0.006675  0.0033382
0.00756867 0.00224183
0.00852095 0.000736198
0.00958982 -0.00100072
 0.0107896 -0.00253207
 0.0121362 -0.0033486
 0.0136477 -0.00308118
 0.0153442 -0.00173979
 0.0172484 0.000204784
 0.0193858 0.00201932
 0.0217849  0.0032046
 0.0244777 0.00391974
 0.0275001 0.00441719
 0.0308926 0.00444287
 0.0347005  0.0036435
 0.0389746 0.00209892
 0.0437719 0.00069508
 0.0491566 0.000823866
 0.0552005 0.00263123
 0.0619844 0.00539538
 0.0695988 0.00733267
 0.0781455 0.00740815
 0.0877386 0.00719141
 0.0985062 0.00717981
  0.110592 0.00631525
  0.124158 0.00420652
  0.139384 0.00110529
  0.156474 -0.00156914
  0.175657 -0.00286723
  0.197189 -0.00242983
  0.221357 -0.0018265
  0.248483 -0.00132165
  0.278931 6.39958e-05
  0.314615 0.00143497
   0.35378 0.00136254
  0.392945 0.00144547
   0.43211 0.00185049
  0.471275 0.00144728
   0.51044 0.000614035
  0.549604 -0.000180421
  0.588769 0.000153152
  0.627934 0.000562021
  0.667099 0.000507505
  0.706264 0.000325671
  0.745429 0.000371743
  0.784593 0.000455247
  0.823758 0.00063755
  0.862923 0.00065797
  0.902088 0.000664905
  0.941253 0.000904747
  0.980418 0.00113522
   1.01958 0.00110498
   1.05875 0.00109722
   1.09791  0.0010852
   1.13708 0.00100095
   1.17624 0.00089647
   1.21541 0.000838277
   1.25457 0.000838431
   1.29374 0.000784516
    1.3329 0.000724812
   1.37207 0.000409333
   1.41123 -0.000705187
    1.4504 -0.00173393
   1.48956 -0.00184185
   1.52873 -0.00115444
   1.56789 -0.000926788
   1.60706 -0.00131806
   1.64622 -0.00231218
   1.68539 -0.00425265
   1.72107 -0.00621674
   1.75152 -0.00674245
   1.77865 -0.00512276
   1.80281 -0.00343736
   1.82434 -0.00195282
   1.84353 0.000568068
   1.86062 0.00304767
   1.87584  0.0051394
   1.88941 0.00643835
    1.9015 0.00575316
   1.91226 0.00454552
   1.92186 0.00231597
    1.9304 -0.000245248
   1.93802 -0.00193342
    1.9448 -0.00341704
   1.95084 -0.00561647
   1.95623 -0.0095211
   1.96103 -0.0165128
    1.9653 -0.0260635
   1.96911 -0.0355119
    1.9725 -0.0435481
   1.97552 -0.0509184
   1.97822 -0.0585649
   1.98061 -0.0663596
   1.98275 -0.0727505
   1.98466 -0.0760179
   1.98635 -0.0754723
   1.98786 -0.0714168
   1.98921 -0.0646928
   1.99041 -0.0563371
   1.99148 -0.0473483
   1.99243  -0.038511
   1.99333 -0.0299695
   1.99421 -0.0217508
    1.9951 -0.0143456
     1.996 -0.00823358
   1.99689 -0.00375401
   1.99777 -0.00101172
   1.99867 0.000162476
   1.99956 0.000203278
         2 0.000265641
