         0 -3.24498e-17
  0.000445 -5.64448e-17
  0.001335 -1.29343e-16
  0.002225 -1.06675e-16
  0.003115 -2.19589e-16
  0.004005 2.43849e-17
  0.004895 3.74047e-16
  0.005785 -1.79554e-16
  0.006675 -4.32729e-16
0.00756867 4.16573e-16
0.00852095 7.31948e-17
0.00958982 -6.57447e-16
 0.0107896 3.56604e-17
 0.0121362 -2.86819e-16
 0.0136477 -4.52403e-16
 0.0153442 -7.48202e-16
 0.0172484 -7.71312e-16
 0.0193858 -6.29825e-16
 0.0217849 -6.17062e-16
 0.0244777 -4.11937e-16
 0.0275001 -4.64535e-16
 0.0308926 -7.49196e-16
 0.0347005 -3.34897e-16
 0.0389746 -2.386e-16
 0.0437719 -2.81606e-16
 0.0491566 -3.67724e-16
 0.0552005 -7.13314e-16
 0.0619844 -7.68274e-16
 0.0695988 -3.77494e-16
 0.0781455 -5.0294e-16
 0.0877386 -3.91296e-16
 0.0985062 -1.55014e-16
  0.110592 -2.31357e-16
  0.124158 -4.39302e-16
  0.139384 -1.64402e-16
  0.156474 -1.82299e-17
  0.175657 -3.38001e-16
  0.197189 1.36979e-17
  0.221357 7.08145e-17
  0.248483 -5.99432e-17
  0.278931 2.59526e-17
  0.314615 -2.81553e-17
   0.35378 5.99587e-17
  0.392945  1.152e-16
   0.43211 7.93926e-17
  0.471275 7.03954e-17
   0.51044 9.27813e-18
  0.549604 3.20877e-17
  0.588769 -4.38116e-17
  0.627934 -5.26024e-17
  0.667099 -2.64588e-17
  0.706264 1.77836e-17
  0.745429 -1.53222e-17
  0.784593 -5.47262e-17
  0.823758 -1.11711e-17
  0.862923 -4.01668e-17
  0.902088 -5.25602e-17
  0.941253 -4.18381e-18
  0.980418 -1.79634e-17
   1.01958 -9.06253e-17
   1.05875 4.39204e-18
   1.09791 1.10267e-17
   1.13708 4.08829e-17
   1.17624 1.13043e-17
   1.21541 2.75402e-17
   1.25457 6.29563e-17
   1.29374 1.18965e-16
    1.3329 3.04118e-17
   1.37207 2.87426e-17
   1.41123 4.60215e-17
    1.4504 -2.25903e-17
   1.48956 -4.19043e-17
   1.52873 -1.42814e-16
   1.56789 -1.11637e-16
   1.60706 7.19602e-17
   1.64622 -3.6442e-17
   1.68539 -1.15598e-16
   1.72107 -8.96527e-17
   1.75152 -6.59839e-17
   1.77865 -1.61013e-16
   1.80281 5.63993e-17
   1.82434 5.06351e-17
   1.84353 1.06226e-17
   1.86062 -3.5838e-17
   1.87584 2.72662e-16
   1.88941 -2.7037e-16
    1.9015 2.83498e-16
   1.91226 -6.99112e-16
   1.92186 -4.39222e-16
    1.9304 -1.69287e-16
   1.93802 -6.36824e-17
    1.9448 -5.14628e-16
   1.95084 -3.61684e-16
   1.95623 3.02709e-16
   1.96103 5.62057e-16
    1.9653 3.28217e-16
   1.96911 -3.47349e-16
    1.9725 9.11768e-16
   1.97552 -1.56748e-15
   1.97822 -6.65654e-16
   1.98061 -5.82219e-16
   1.98275 5.50568e-15
   1.98466 -3.93653e-15
   1.98635 -3.12157e-15
   1.98786 -1.75024e-16
   1.98921 4.61157e-15
   1.99041 8.43894e-16
   1.99148 -5.62778e-15
   1.99243 -6.93046e-16
   1.99333 4.66893e-16
   1.99421 -4.48097e-16
    1.9951 1.75675e-16
     1.996 -4.03625e-16
   1.99689 -5.4351e-16
   1.99777 -8.59705e-16
   1.99867 -7.10008e-16
   1.99956 -9.88931e-17
         2 -8.68495e-17
