         0 -0.000572869
 0.0002225 -0.000572869
 0.0006675 -0.00406525
 0.0011125 -0.0112178
 0.0015575 -0.0220228
 0.0020025 -0.0361854
 0.0024475  -0.053096
 0.0028925 -0.0718953
 0.0033375 -0.0915476
 0.0037825   -0.11099
 0.0042275  -0.129225
 0.0046725  -0.145445
 0.0051175  -0.159061
 0.0055625  -0.169747
 0.0060075  -0.177393
 0.0064525    -0.1821
 0.0068975  -0.184152
 0.0073476  -0.183449
0.00781612  -0.180352
0.00831203  -0.175521
0.00883694  -0.168751
0.00939255  -0.160329
0.00998065  -0.150549
 0.0106031   -0.13979
  0.011262  -0.128396
 0.0119594  -0.116739
 0.0126977   -0.10512
  0.013479 -0.0938276
 0.0143061 -0.0830602
 0.0151815 -0.0729902
 0.0161082 -0.0637045
  0.017089 -0.0552679
 0.0181271 -0.0476795
  0.019226 -0.0409298
 0.0203891 -0.0349664
 0.0216203 -0.0297399
 0.0229234 -0.0251767
 0.0243028 -0.0212133
 0.0257628 -0.0177759
 0.0273082 -0.0148064
  0.028944 -0.0122454
 0.0306754 -0.0100459
 0.0325081 -0.00815736
 0.0344479   -0.00654
 0.0365012 -0.00515531
 0.0386746 -0.00397232
  0.040975 -0.00296178
   0.04341 -0.00210193
 0.0459873 -0.00137172
 0.0487154 -0.000756311
  0.051603 -0.000242174
 0.0546595 0.000186342
 0.0578947 0.000552646
 0.0613191 0.000864065
 0.0649437 0.00112193
 0.0687803 0.00133009
 0.0728413 0.00150009
 0.0771397 0.00164603
 0.0816895 0.00177153
 0.0865054 0.00186978
 0.0916029 0.00194903
 0.0969985 0.00202114
   0.10271 0.00208246
  0.108755   0.002129
  0.115153 0.00216981
  0.121926 0.00220651
  0.129095 0.00224283
  0.136683 0.00227461
  0.144715 0.00231243
  0.153216 0.00231928
  0.162214 0.00234676
  0.171739  0.0023402
  0.181821 0.00238352
  0.192492 0.00236057
  0.203788  0.0024389
  0.215744  0.0023418
  0.228399 0.00250105
  0.241794 0.00228818
  0.255972 0.00261726
   0.27098 0.00223956
  0.286865 0.00259628
  0.304824 0.00246192
  0.324407 0.00233928
  0.343989 0.00249339
  0.363571 0.00235942
  0.383154 0.00248065
  0.402736 0.00240138
  0.422319 0.00246181
  0.441901 0.00242597
  0.461484 0.00245843
  0.481066 0.00243273
  0.500648 0.00245541
  0.520231 0.00243883
  0.539813  0.0024485
  0.559396 0.00243134
  0.578978 0.00244139
   0.59856  0.0024339
  0.618143 0.00243369
  0.637725 0.00242101
  0.657308 0.00242264
   0.67689 0.00242568
  0.696473 0.00243324
  0.716055 0.00242915
  0.735637 0.00243141
   0.75522 0.00243146
  0.774802 0.00243962
  0.794385 0.00243533
  0.813967 0.00243529
  0.833549 0.00243545
  0.853132 0.00244539
  0.872714 0.00244938
  0.892297  0.0024538
  0.911879 0.00245211
  0.931462 0.00245599
  0.951044 0.00246248
  0.970626 0.00246652
  0.990209 0.00246412
   1.00979 0.00246196
   1.02937  0.0024626
   1.04896 0.00245893
   1.06854 0.00245869
   1.08812 0.00246179
    1.1077 0.00246281
   1.12729 0.00245963
   1.14687 0.00246275
   1.16645 0.00246011
   1.18603 0.00246151
   1.20562 0.00245678
    1.2252 0.00245942
   1.24478 0.00246459
   1.26436 0.00245974
   1.28395 0.00246502
   1.30353 0.00247547
   1.32311 0.00248387
   1.34269 0.00249742
   1.36228 0.00249079
   1.38186 0.00250458
   1.40144 0.00250631
   1.42102 0.00251421
   1.44061 0.00250729
   1.46019 0.00253238
   1.47977 0.00252566
   1.49935 0.00253655
   1.51894 0.00253036
   1.53852 0.00256243
    1.5581 0.00251893
   1.57768 0.00257792
   1.59727 0.00250287
   1.61685 0.00257996
   1.63643 0.00245866
   1.65601 0.00262121
    1.6756 0.00242033
   1.69518 0.00254804
   1.71314 0.00266579
   1.72902 0.00228227
   1.74403 0.00268415
   1.75821 0.00235184
    1.7716 0.00254806
   1.78426 0.00237762
   1.79621 0.00248216
   1.80751 0.00238495
   1.81818 0.00241246
   1.82826 0.00236059
   1.83779 0.00235102
   1.84679 0.00232101
   1.85529 0.00231337
   1.86332 0.00228682
   1.87091 0.00225189
   1.87808 0.00221355
   1.88485 0.00217255
   1.89125 0.00212813
   1.89729 0.00207391
     1.903 0.00200541
    1.9084 0.00192545
    1.9135 0.00184055
   1.91831 0.00174391
   1.92286 0.00161821
   1.92716 0.00146254
   1.93122 0.00128305
   1.93506  0.0010774
   1.93868 0.000826536
   1.94211 0.000518209
   1.94534 0.00015258
    1.9484 -0.000282157
   1.95129 -0.000805429
   1.95401 -0.00142728
   1.95659 -0.00215741
   1.95903 -0.00301471
   1.96133 -0.00402442
    1.9635 -0.00520899
   1.96555 -0.00659688
   1.96749 -0.00821756
   1.96933 -0.0101063
   1.97106 -0.0122999
   1.97269 -0.0148476
   1.97424 -0.0177989
    1.9757 -0.0212169
   1.97708 -0.0251599
   1.97838 -0.0296989
   1.97961 -0.0348937
   1.98077 -0.0408149
   1.98187  -0.047509
   1.98291 -0.0550249
   1.98389 -0.0633678
   1.98482 -0.0725334
   1.98569 -0.0824522
   1.98652 -0.0930325
    1.9873  -0.104099
   1.98804   -0.11545
   1.98874  -0.126797
    1.9894  -0.137843
   1.99002  -0.148223
   1.99061  -0.157602
   1.99116  -0.165618
   1.99169  -0.171988
   1.99218  -0.176447
   1.99265  -0.179208
    1.9931  -0.179619
   1.99355   -0.17735
   1.99399  -0.172514
   1.99444  -0.164843
   1.99488  -0.154253
   1.99533  -0.140867
   1.99577   -0.12501
   1.99622  -0.107258
   1.99666 -0.0883903
   1.99711 -0.0693661
   1.99755 -0.0512009
     1.998 -0.0348818
   1.99844  -0.021226
   1.99889  -0.010812
   1.99933 -0.00391878
   1.99978 -0.000552351
         2 -0.000552351
