         0 1.61121e-07
 0.0002225 1.61121e-07
 0.0006675 9.76328e-07
 0.0011125 2.33505e-06
 0.0015575 3.93695e-06
 0.0020025 5.44948e-06
 0.0024475 6.53826e-06
 0.0028925 6.91563e-06
 0.0033375 6.39109e-06
 0.0037825 4.90004e-06
 0.0042275 2.49931e-06
 0.0046725 -6.7211e-07
 0.0051175 -4.43038e-06
 0.0055625 -8.58511e-06
 0.0060075 -1.29414e-05
 0.0064525 -1.73091e-05
 0.0068975 -2.15568e-05
 0.0073476 -2.54254e-05
0.00781612 -2.85695e-05
0.00831203 -3.10163e-05
0.00883694 -3.23337e-05
0.00939255 -3.23035e-05
0.00998065 -3.08765e-05
 0.0106031 -2.82634e-05
  0.011262 -2.48961e-05
 0.0119594 -2.13462e-05
 0.0126977 -1.81081e-05
  0.013479 -1.5423e-05
 0.0143061 -1.31552e-05
 0.0151815 -1.08831e-05
 0.0161082 -8.13451e-06
  0.017089 -4.6831e-06
 0.0181271 -6.2002e-07
  0.019226 3.77005e-06
 0.0203891 7.90912e-06
 0.0216203 1.06363e-05
 0.0229234 1.08112e-05
 0.0243028 8.91629e-06
 0.0257628 7.05157e-06
 0.0273082 6.82614e-06
  0.028944 8.01472e-06
 0.0306754 9.10692e-06
 0.0325081 7.96153e-06
 0.0344479 2.67258e-06
 0.0365012 -6.48943e-06
 0.0386746 -1.55244e-05
  0.040975 -1.95058e-05
   0.04341 -1.68655e-05
 0.0459873 -9.4381e-06
 0.0487154 -3.64264e-06
  0.051603 -2.23945e-06
 0.0546595 1.11239e-06
 0.0578947 5.29229e-06
 0.0613191 4.59769e-06
 0.0649437 9.3936e-08
 0.0687803 -1.29337e-06
 0.0728413 5.08478e-07
 0.0771397 1.40733e-06
 0.0816895 4.09568e-06
 0.0865054 8.30553e-06
 0.0916029 8.55757e-06
 0.0969985 1.3226e-05
   0.10271 1.56145e-05
  0.108755 1.24616e-05
  0.115153 9.40229e-06
  0.121926 8.64888e-06
  0.129095 7.73358e-06
  0.136683 3.24013e-06
  0.144715 -4.23883e-06
  0.153216 -2.60061e-06
  0.162214 6.20447e-06
  0.171739 4.18274e-06
  0.181821 2.98539e-06
  0.192492 1.68022e-05
  0.203788 1.43869e-05
  0.215744  2.062e-05
  0.228399 1.55047e-05
  0.241794 3.48307e-07
  0.255972 3.15215e-06
   0.27098 -2.65252e-06
  0.286865 1.06003e-05
  0.304824 -5.49395e-06
  0.324407 -7.17398e-06
  0.343989 5.58312e-06
  0.363571 2.68033e-06
  0.383154 1.4078e-05
  0.402736 3.64515e-06
  0.422319 8.15001e-06
  0.441901 1.10078e-05
  0.461484 3.58241e-06
  0.481066 -9.6856e-07
  0.500648 -5.58838e-06
  0.520231 -5.99249e-06
  0.539813 -1.21238e-05
  0.559396 -1.60438e-05
  0.578978 -2.46736e-05
   0.59856 -2.07725e-05
  0.618143 -2.2872e-05
  0.637725 -2.41582e-05
  0.657308 -2.4604e-05
   0.67689 -2.04657e-05
  0.696473 -7.97782e-06
  0.716055 -9.07127e-06
  0.735637 -7.71441e-06
   0.75522 -6.15185e-06
  0.774802 -2.14787e-06
  0.794385 -1.32377e-07
  0.813967 8.07078e-07
  0.833549 -2.88078e-06
  0.853132 -2.23404e-07
  0.872714 4.29274e-06
  0.892297 5.13556e-06
  0.911879 1.01805e-07
  0.931462 -4.37732e-06
  0.951044 -2.72169e-07
  0.970626 2.20599e-06
  0.990209 9.66558e-07
   1.00979 4.20841e-06
   1.02937 9.02649e-06
   1.04896 1.41041e-05
   1.06854 1.3312e-05
   1.08812 8.13895e-06
    1.1077 8.47077e-06
   1.12729 8.65626e-06
   1.14687 1.42121e-05
   1.16645 1.52261e-05
   1.18603 1.20764e-05
   1.20562 8.87426e-06
    1.2252 1.43719e-05
   1.24478 1.0845e-05
   1.26436 4.73434e-06
   1.28395 2.61434e-06
   1.30353 1.88947e-06
   1.32311 -2.64129e-07
   1.34269 -1.01143e-05
   1.36228 -1.35421e-05
   1.38186 -1.24488e-05
   1.40144 -1.59465e-05
   1.42102 -1.83344e-05
   1.44061 -1.21434e-05
   1.46019 -1.21269e-05
   1.47977 -6.35176e-06
   1.49935 -2.22186e-06
   1.51894 -4.34703e-06
   1.53852  -1.49e-06
    1.5581 -1.12504e-06
   1.57768 -3.66768e-06
   1.59727 -7.07112e-06
   1.61685 1.99626e-06
   1.63643 -1.75041e-05
   1.65601 -1.91451e-05
    1.6756 -5.57976e-06
   1.69518 -1.69847e-06
   1.71314 -1.2569e-05
   1.72902 -6.52648e-06
   1.74403 2.19938e-07
   1.75821 9.30819e-06
    1.7716 2.91715e-06
   1.78426 -1.35653e-06
   1.79621 -2.3489e-06
   1.80751 1.35726e-06
   1.81818 1.41676e-05
   1.82826 1.38412e-05
   1.83779 6.5446e-06
   1.84679 5.05943e-06
   1.85529 -1.48365e-06
   1.86332 -5.23838e-06
   1.87091 -5.86999e-06
   1.87808 2.77769e-06
   1.88485 3.22934e-06
   1.89125 1.20856e-07
   1.89729 -2.55469e-06
     1.903 -5.7823e-06
    1.9084 -4.79184e-06
    1.9135 -5.29916e-06
   1.91831 -6.67471e-06
   1.92286 -6.628e-06
   1.92716 -3.55872e-06
   1.93122 3.63866e-08
   1.93506 3.18242e-06
   1.93868 5.83234e-06
   1.94211 6.75583e-06
   1.94534 8.69538e-06
    1.9484 1.19142e-05
   1.95129 1.36578e-05
   1.95401 1.25611e-05
   1.95659 1.21379e-05
   1.95903 1.41256e-05
   1.96133 1.78063e-05
    1.9635 2.27725e-05
   1.96555 2.63769e-05
   1.96749 2.56373e-05
   1.96933 2.15572e-05
   1.97106 1.68672e-05
   1.97269 1.29246e-05
   1.97424 1.03177e-05
    1.9757 9.58347e-06
   1.97708 1.05066e-05
   1.97838 1.25261e-05
   1.97961 1.53658e-05
   1.98077 1.91533e-05
   1.98187 2.4298e-05
   1.98291 3.1417e-05
   1.98389 4.09102e-05
   1.98482 5.2671e-05
   1.98569 6.59741e-05
   1.98652 7.97982e-05
    1.9873 9.30687e-05
   1.98804 0.000104983
   1.98874 0.000115032
    1.9894 0.000123085
   1.99002 0.000129213
   1.99061 0.000133684
   1.99116 0.000136758
   1.99169 0.000138724
   1.99218 0.000139756
   1.99265 0.000140166
    1.9931 0.000139808
   1.99355 0.000138282
   1.99399 0.000135531
   1.99444 0.000131336
   1.99488 0.000125384
   1.99533 0.000117428
   1.99577 0.000107312
   1.99622 9.51078e-05
   1.99666 8.11286e-05
   1.99711 6.59882e-05
   1.99755 5.05127e-05
     1.998 3.56863e-05
   1.99844 2.24984e-05
   1.99889 1.18525e-05
   1.99933 4.44071e-06
   1.99978 6.60715e-07
         2 6.60715e-07
