         0 5.09989e-11
 0.0002225 5.09989e-11
 0.0006675 -1.42205e-10
 0.0011125 2.30308e-10
 0.0015575 -3.03939e-10
 0.0020025 3.82394e-10
 0.0024475 -4.43413e-10
 0.0028925 4.65522e-10
 0.0033375 -4.30949e-10
 0.0037825 5.28729e-10
 0.0042275 -3.89779e-10
 0.0046725 3.85574e-10
 0.0051175 -2.97198e-10
 0.0055625 8.98131e-11
 0.0060075 -9.23482e-11
 0.0064525 -3.19413e-10
 0.0068975 1.27861e-06
 0.0073476 -4.26037e-06
0.00781612 5.53155e-06
0.00831203 -4.93737e-06
0.00883694 4.40702e-06
0.00939255 -3.9337e-06
0.00998065 3.51121e-06
 0.0106031 -3.13188e-06
  0.011262 2.79778e-06
 0.0119594 -2.49743e-06
 0.0126977 2.22928e-06
  0.013479 -1.99003e-06
 0.0143061 1.77643e-06
 0.0151815 -1.58581e-06
 0.0161082 1.41573e-06
  0.017089 -1.26374e-06
 0.0181271 1.1283e-06
  0.019226 -1.00726e-06
 0.0203891 8.99088e-07
 0.0216203 -8.02867e-07
 0.0229234 7.1656e-07
 0.0243028 -6.3968e-07
 0.0257628 5.71138e-07
 0.0273082 -5.09664e-07
  0.028944 4.5505e-07
 0.0306754 -4.06087e-07
 0.0325081 3.62376e-07
 0.0344479 -3.23609e-07
 0.0365012 2.88586e-07
 0.0386746 -2.57286e-07
  0.040975 2.29847e-07
   0.04341 -2.05041e-07
 0.0459873 1.82565e-07
 0.0487154 -1.63298e-07
  0.051603 1.45603e-07
 0.0546595 -1.29574e-07
 0.0578947 1.15811e-07
 0.0613191 -1.02938e-07
 0.0649437 9.17589e-08
 0.0687803 -8.18283e-08
 0.0728413 7.29594e-08
 0.0771397 -6.50414e-08
 0.0816895 5.76076e-08
 0.0865054 -5.13113e-08
 0.0916029 4.58016e-08
 0.0969985 -4.07229e-08
   0.10271 3.59706e-08
  0.108755 -3.1867e-08
  0.115153 2.84885e-08
  0.121926 -2.53255e-08
  0.129095 2.25684e-08
  0.136683 -2.02828e-08
  0.144715 1.78472e-08
  0.153216 -1.55047e-08
  0.162214 1.39181e-08
  0.171739 -1.24368e-08
  0.181821 1.09758e-08
  0.192492 -9.93108e-09
  0.203788 8.7009e-09
  0.215744 -7.72559e-09
  0.228399 7.31377e-09
  0.241794 -6.71998e-09
  0.255972 5.85238e-09
   0.27098 -4.81228e-09
  0.286865 7.06147e-09
  0.304824 -4.30584e-09
  0.324407 5.05134e-10
  0.343989 -6.17961e-10
  0.363571 3.01502e-10
  0.383154 -1.21626e-10
  0.402736 1.32603e-10
  0.422319 -1.67691e-10
  0.441901 2.92677e-10
  0.461484 -3.31375e-10
  0.481066 4.50422e-10
  0.500648 -6.51868e-10
  0.520231 4.54944e-10
  0.539813 -2.40363e-10
  0.559396 3.36594e-10
  0.578978 -3.78046e-10
   0.59856 3.56346e-10
  0.618143 -4.30837e-10
  0.637725 4.42831e-10
  0.657308 -4.25342e-10
   0.67689 4.79129e-10
  0.696473 -4.58028e-10
  0.716055 4.2527e-10
  0.735637 -3.88568e-10
   0.75522 3.10507e-10
  0.774802 -3.24776e-10
  0.794385 3.61862e-10
  0.813967 -3.15532e-10
  0.833549 2.7067e-10
  0.853132 -2.91636e-10
  0.872714 3.00861e-10
  0.892297 -3.06424e-10
  0.911879 3.13041e-10
  0.931462 -2.93316e-10
  0.951044 2.91971e-10
  0.970626 -2.96206e-10
  0.990209 2.67067e-10
   1.00979 -2.47848e-10
   1.02937 2.45587e-10
   1.04896 -2.64255e-10
   1.06854 3.25399e-10
   1.08812 -3.21128e-10
    1.1077 2.77417e-10
   1.12729 -2.99863e-10
   1.14687 3.78953e-10
   1.16645 -4.05393e-10
   1.18603 3.09588e-10
   1.20562 -2.7387e-10
    1.2252 2.32673e-10
   1.24478 -1.8616e-11
   1.26436 -7.98506e-11
   1.28395 -1.1615e-10
   1.30353 1.92828e-10
   1.32311 -6.11076e-11
   1.34269 3.33728e-11
   1.36228 -6.57266e-13
   1.38186 -6.88032e-11
   1.40144 -7.8672e-11
   1.42102 1.04075e-10
   1.44061 1.67217e-10
   1.46019 -1.04199e-10
   1.47977 -5.63214e-11
   1.49935 -1.24706e-10
   1.51894 1.42373e-10
   1.53852 -1.52395e-10
    1.5581 4.33013e-10
   1.57768 -6.31637e-10
   1.59727 6.91785e-10
   1.61685 -7.51968e-10
   1.63643 8.78344e-10
   1.65601 -8.83845e-10
    1.6756 6.60087e-10
   1.69518 -2.50015e-09
   1.71314 4.01858e-09
   1.72902 -3.36768e-09
   1.74403 4.13553e-09
   1.75821 -4.52639e-09
    1.7716 5.24848e-09
   1.78426 -5.95556e-09
   1.79621 6.63901e-09
   1.80751 -7.768e-09
   1.81818 9.12936e-09
   1.82826 -1.04032e-08
   1.83779 1.16942e-08
   1.84679 -1.3073e-08
   1.85529 1.46522e-08
   1.86332 -1.69918e-08
   1.87091 1.94248e-08
   1.87808 -2.1828e-08
   1.88485 2.49303e-08
   1.89125 -2.80643e-08
   1.89729 3.13157e-08
     1.903 -3.55727e-08
    1.9084 4.05017e-08
    1.9135 -4.557e-08
   1.91831 5.13901e-08
   1.92286 -5.83895e-08
   1.92716 6.58546e-08
   1.93122 -7.38464e-08
   1.93506 8.33581e-08
   1.93868 -9.42914e-08
   1.94211 1.05863e-07
   1.94534 -1.18848e-07
    1.9484 1.34061e-07
   1.95129 -1.51186e-07
   1.95401 1.70039e-07
   1.95659 -1.91317e-07
   1.95903 2.1512e-07
   1.96133 -2.41938e-07
    1.9635 2.72084e-07
   1.96555 -3.05633e-07
   1.96749 3.43456e-07
   1.96933 -3.86053e-07
   1.97106 4.3364e-07
   1.97269 -4.86996e-07
   1.97424 5.46934e-07
    1.9757 -6.14147e-07
   1.97708 6.89424e-07
   1.97838 -7.73909e-07
   1.97961 8.68521e-07
   1.98077 -9.74637e-07
   1.98187 1.09348e-06
   1.98291 -1.22669e-06
   1.98389 1.37589e-06
   1.98482 -1.54302e-06
   1.98569 1.73021e-06
   1.98652 -1.93985e-06
    1.9873 2.1746e-06
   1.98804 -2.43743e-06
   1.98874 2.7317e-06
    1.9894 -3.06116e-06
   1.99002 3.42986e-06
   1.99061 -3.84276e-06
   1.99116 4.30477e-06
   1.99169 -4.82214e-06
   1.99218 5.40091e-06
   1.99265 -4.16781e-06
    1.9931 1.27177e-06
   1.99355 -2.86393e-08
   1.99399 2.49215e-08
   1.99444 -2.20696e-08
   1.99488 1.91099e-08
   1.99533 -1.66492e-08
   1.99577 1.42794e-08
   1.99622 -1.22749e-08
   1.99666 1.02604e-08
   1.99711 -8.64611e-09
   1.99755 6.99518e-09
     1.998 -5.56908e-09
   1.99844 4.22722e-09
   1.99889 -2.96109e-09
   1.99933 1.75868e-09
   1.99978 -5.315e-10
         2 -5.315e-10
