         0 1.93803e-19
 0.0002225 2.33017e-19
 0.0006675 -5.13565e-20
 0.0011125 -1.4861e-18
 0.0015575 1.6244e-18
 0.0020025 -1.85615e-21
 0.0024475 -7.56769e-19
 0.0028925 4.21358e-18
 0.0033375 1.31482e-18
 0.0037825 3.27492e-18
 0.0042275 -1.52885e-18
 0.0046725 4.28901e-18
 0.0051175 -4.33922e-18
 0.0055625 -5.98636e-19
 0.0060075 -1.95345e-18
 0.0064525 2.48633e-18
 0.0068975 3.32318e-18
 0.0073476 -3.12415e-18
0.00781612 -9.48026e-18
0.00831203 1.47543e-18
0.00883694 5.58942e-18
0.00939255 -8.05276e-18
0.00998065 3.82173e-18
 0.0106031 -1.60965e-17
  0.011262 -3.79405e-18
 0.0119594 -1.10215e-17
 0.0126977 -4.09971e-18
  0.013479 3.64569e-18
 0.0143061 8.33725e-18
 0.0151815 -3.6972e-17
 0.0161082 -1.53929e-18
  0.017089 3.43099e-18
 0.0181271 -5.71895e-18
  0.019226 -2.20969e-18
 0.0203891 3.41983e-18
 0.0216203 -7.17073e-18
 0.0229234 7.18797e-18
 0.0243028 5.60977e-18
 0.0257628 -1.62563e-19
 0.0273082 -1.08419e-17
  0.028944 3.78778e-18
 0.0306754 4.92287e-18
 0.0325081 -1.43092e-18
 0.0344479 -1.26417e-18
 0.0365012 5.28762e-18
 0.0386746 6.39044e-18
  0.040975 4.88901e-18
   0.04341 -3.26971e-18
 0.0459873 7.9632e-18
 0.0487154 7.88258e-20
  0.051603 -5.48742e-18
 0.0546595 3.46851e-17
 0.0578947 3.58564e-18
 0.0613191 -3.24053e-18
 0.0649437 -3.61564e-18
 0.0687803 -1.09943e-17
 0.0728413 3.14749e-18
 0.0771397 3.08648e-18
 0.0816895 -2.99386e-18
 0.0865054 -5.37864e-18
 0.0916029 5.36938e-18
 0.0969985 1.32963e-17
   0.10271 1.05053e-17
  0.108755 -1.15164e-17
  0.115153 -1.03604e-18
  0.121926 -6.38351e-18
  0.129095 -3.60979e-18
  0.136683 -2.44493e-17
  0.144715 -1.77139e-17
  0.153216 1.07716e-17
  0.162214 5.6458e-18
  0.171739 1.94059e-18
  0.181821 -4.07049e-18
  0.192492 5.62903e-17
  0.203788 -2.70504e-18
  0.215744 8.53319e-19
  0.228399 -1.73559e-18
  0.241794  8.442e-18
  0.255972 -6.54044e-18
   0.27098 1.24106e-17
  0.286865 -3.29055e-18
  0.304824 -9.61736e-18
  0.324407 1.17538e-17
  0.343989 -6.07492e-18
  0.363571 -4.35773e-17
  0.383154 -9.20511e-18
  0.402736 9.16306e-18
  0.422319 1.71522e-17
  0.441901 -1.61076e-17
  0.461484 -1.39683e-17
  0.481066 -3.23378e-18
  0.500648 7.9891e-18
  0.520231 1.39276e-17
  0.539813 -1.06079e-18
  0.559396 -1.46313e-17
  0.578978 -9.86754e-18
   0.59856 1.41292e-17
  0.618143 6.33443e-18
  0.637725 -7.23353e-18
  0.657308 -2.5315e-17
   0.67689 -1.80113e-17
  0.696473 -1.45882e-17
  0.716055 -2.69558e-18
  0.735637 1.04924e-17
   0.75522 1.39555e-17
  0.774802 4.12847e-17
  0.794385 7.65977e-18
  0.813967 5.77717e-18
  0.833549 -2.35467e-17
  0.853132 -2.96092e-17
  0.872714 -2.47935e-17
  0.892297 -3.0276e-18
  0.911879 5.86317e-18
  0.931462 9.18778e-18
  0.951044 2.20705e-17
  0.970626 1.34098e-17
  0.990209 1.65907e-17
   1.00979 3.81393e-17
   1.02937 -1.44223e-17
   1.04896 -1.36933e-17
   1.06854 3.68344e-18
   1.08812 -2.0625e-17
    1.1077 -1.04291e-17
   1.12729 -1.73088e-18
   1.14687 -9.89737e-18
   1.16645 -6.99401e-18
   1.18603 -1.52254e-17
   1.20562 -5.14201e-18
    1.2252 -1.10813e-17
   1.24478 -4.23508e-18
   1.26436 -1.05696e-17
   1.28395 6.45378e-18
   1.30353 -1.46052e-17
   1.32311 1.70602e-18
   1.34269 -1.26102e-17
   1.36228 -5.14801e-18
   1.38186 7.4748e-18
   1.40144 -1.20532e-17
   1.42102 1.17259e-17
   1.44061 3.04658e-18
   1.46019 -5.87245e-18
   1.47977 3.89617e-18
   1.49935 -1.38444e-17
   1.51894 9.24857e-19
   1.53852 -2.34982e-18
    1.5581 8.30889e-19
   1.57768 1.00415e-17
   1.59727 -6.22388e-18
   1.61685 -1.21112e-17
   1.63643 1.12925e-17
   1.65601 -5.58522e-18
    1.6756 3.79128e-18
   1.69518 1.15489e-17
   1.71314 8.79656e-18
   1.72902 5.5237e-18
   1.74403 -1.37943e-18
   1.75821 8.04089e-18
    1.7716 -1.50273e-18
   1.78426 -1.37018e-17
   1.79621 -9.36907e-18
   1.80751 -1.05127e-17
   1.81818 3.3919e-18
   1.82826 -8.06977e-18
   1.83779 -4.74735e-18
   1.84679 -7.05596e-18
   1.85529 -6.9605e-18
   1.86332 1.93574e-17
   1.87091 -3.11831e-18
   1.87808 2.64753e-17
   1.88485 5.3781e-18
   1.89125 6.54633e-18
   1.89729 -3.69176e-17
     1.903 1.1798e-17
    1.9084 8.01948e-18
    1.9135 1.00717e-18
   1.91831 -1.12239e-18
   1.92286 1.53503e-18
   1.92716 1.09631e-18
   1.93122 -6.37762e-19
   1.93506 -3.70776e-18
   1.93868 5.83355e-18
   1.94211 -2.77615e-18
   1.94534 3.22339e-17
    1.9484 -5.59627e-18
   1.95129 6.01896e-18
   1.95401 -8.91743e-18
   1.95659 5.12142e-19
   1.95903 1.38885e-18
   1.96133 1.00524e-18
    1.9635 6.27266e-18
   1.96555 -2.96148e-18
   1.96749 -7.71512e-18
   1.96933 9.24978e-18
   1.97106 -5.17901e-18
   1.97269 4.02374e-18
   1.97424 -4.66458e-18
    1.9757 -5.80005e-19
   1.97708 1.02503e-17
   1.97838 4.81368e-18
   1.97961 -6.62739e-18
   1.98077 -3.41062e-18
   1.98187 4.24872e-18
   1.98291 1.75719e-17
   1.98389 1.7608e-18
   1.98482 2.42053e-18
   1.98569 3.68426e-18
   1.98652 -1.35881e-17
    1.9873 1.88599e-19
   1.98804 -6.79604e-18
   1.98874 3.71824e-18
    1.9894 3.38155e-18
   1.99002 3.10271e-18
   1.99061 1.71294e-18
   1.99116 8.83998e-18
   1.99169 -6.71758e-18
   1.99218 -3.30496e-18
   1.99265 9.24677e-18
    1.9931 -2.19984e-17
   1.99355 2.3181e-17
   1.99399 1.86413e-19
   1.99444 -7.03959e-19
   1.99488 -2.07907e-20
   1.99533 2.84477e-19
   1.99577 2.05679e-18
   1.99622 -5.76404e-18
   1.99666 4.49724e-18
   1.99711 -6.96367e-18
   1.99755 1.16804e-17
     1.998 -1.38421e-18
   1.99844 4.28069e-19
   1.99889 2.11003e-19
   1.99933 1.83488e-18
   1.99978 3.95665e-19
         2 1.41879e-19
