         0 0.00728467
 0.0002225 0.00728467
 0.0006675 0.00728856
 0.0011125 0.00730093
 0.0015575 0.00732526
 0.0020025  0.0073622
 0.0024475 0.00740945
 0.0028925 0.00746192
 0.0033375 0.00751239
 0.0037825 0.00755252
 0.0042275 0.00757392
 0.0046725 0.00756909
 0.0051175 0.00753197
 0.0055625  0.0074582
 0.0060075 0.00734512
 0.0064525 0.00719182
 0.0068975 0.00699884
 0.0073476 0.00676559
0.00781612 0.00648841
0.00831203 0.00616605
0.00883694 0.00580389
0.00939255 0.00541224
0.00998065 0.00500513
 0.0106031 0.00459829
  0.011262 0.00420598
 0.0119594 0.00383791
 0.0126977 0.00349735
  0.013479 0.00318211
 0.0143061 0.00288844
 0.0151815 0.00261653
 0.0161082  0.0023746
  0.017089 0.00217878
 0.0181271  0.0020489
  0.019226 0.00200359
 0.0203891 0.00205393
 0.0216203 0.00219074
 0.0229234 0.00237262
 0.0243028  0.0025421
 0.0257628 0.00266976
 0.0273082 0.00277779
  0.028944  0.0029129
 0.0306754  0.0030972
 0.0325081 0.00328726
 0.0344479 0.00335292
 0.0365012 0.00311068
 0.0386746 0.00244537
  0.040975 0.00143462
   0.04341 0.00032847
 0.0459873 -0.00058913
 0.0487154 -0.00121256
  0.051603 -0.00167858
 0.0546595 -0.00203432
 0.0578947 -0.00218086
 0.0613191 -0.00223556
 0.0649437 -0.00247785
 0.0687803 -0.00291653
 0.0728413 -0.00330866
 0.0771397 -0.00356556
 0.0816895 -0.00362813
 0.0865054 -0.00330133
 0.0916029 -0.00265164
 0.0969985 -0.00159726
   0.10271 -3.5934e-06
  0.108755 0.00167114
  0.115153   0.002988
  0.121926 0.00391707
  0.129095 0.00451753
  0.136683  0.0045984
  0.144715 0.00377428
  0.153216 0.00255905
  0.162214 0.00212287
  0.171739  0.0018231
  0.181821 0.000590276
  0.192492 1.16936e-05
  0.203788 0.000175749
  0.215744 0.00110463
  0.228399 0.00341698
  0.241794 0.00481196
  0.255972 0.00519168
   0.27098 0.00437939
  0.286865  0.0041351
  0.304824 0.00317047
  0.324407 0.000152681
  0.343989 -0.000818965
  0.363571 -0.00139837
  0.383154 -0.000830307
  0.402736 9.11527e-05
  0.422319 0.000120733
  0.441901 0.000973106
  0.461484 0.000442238
  0.481066 -0.000932188
  0.500648 -0.00201139
  0.520231 -0.00284918
  0.539813 -0.00331364
  0.559396 -0.00294176
  0.578978 -0.00265208
   0.59856 -0.0022346
  0.618143 -0.00070708
  0.637725 0.000376616
  0.657308 -0.00029196
   0.67689 -0.0023665
  0.696473 -0.00308961
  0.716055 -0.00292665
  0.735637 -0.00332262
   0.75522 -0.00341775
  0.774802 -0.00279919
  0.794385 -0.00162998
  0.813967 -0.000390768
  0.833549 0.000242948
  0.853132 0.000820694
  0.872714 0.00276829
  0.892297 0.00548117
  0.911879 0.00719606
  0.931462 0.00703045
  0.951044 0.00648035
  0.970626 0.00654881
  0.990209 0.00632888
   1.00979 0.00622568
   1.02937 0.00702329
   1.04896 0.00821406
   1.06854 0.00870353
   1.08812 0.00750177
    1.1077 0.00529561
   1.12729 0.00287199
   1.14687 0.00100352
   1.16645 -8.16913e-05
   1.18603 -0.00130642
   1.20562 -0.0029502
    1.2252 -0.00381493
   1.24478 -0.00394034
   1.26436 -0.00466925
   1.28395 -0.00507164
   1.30353 -0.00433813
   1.32311 -0.00292193
   1.34269 -0.00256538
   1.36228 -0.00319914
   1.38186 -0.00268872
   1.40144 -0.00267303
   1.42102 -0.00492299
   1.44061 -0.00633104
   1.46019 -0.00633917
   1.47977 -0.00593068
   1.49935 -0.00466962
   1.51894 -0.0048253
   1.53852 -0.00602351
    1.5581 -0.00612455
   1.57768 -0.00584335
   1.59727 -0.00634399
   1.61685 -0.00583601
   1.63643 -0.0066365
   1.65601 -0.00950015
    1.6756 -0.00933536
   1.69518 -0.00638858
   1.71314 -0.0052488
   1.72902 -0.00626044
   1.74403 -0.00620426
   1.75821 -0.00380716
    1.7716 -0.000989731
   1.78426 -0.000326304
   1.79621 -0.00123318
   1.80751 -0.0025033
   1.81818 -0.00233873
   1.82826 -0.000714664
   1.83779 0.000486015
   1.84679 0.00115709
   1.85529 0.00152569
   1.86332 0.00142325
   1.87091 0.00123942
   1.87808 0.00174631
   1.88485 0.00295691
   1.89125 0.00403039
   1.89729 0.00476256
     1.903 0.00517108
    1.9084 0.00543679
    1.9135 0.00567209
   1.91831 0.00574468
   1.92286 0.00567584
   1.92716 0.00563429
   1.93122 0.00574261
   1.93506 0.00598987
   1.93868 0.00632108
   1.94211 0.00664359
   1.94534 0.00694259
    1.9484 0.00731663
   1.95129 0.00778477
   1.95401 0.00824686
   1.95659 0.00866596
   1.95903 0.00913815
   1.96133 0.00976414
    1.9635  0.0105949
   1.96555  0.0116057
   1.96749  0.0126642
   1.96933  0.0136163
   1.97106  0.0143913
   1.97269  0.0149958
   1.97424  0.0154689
    1.9757  0.0158642
   1.97708  0.0162355
   1.97838  0.0166197
   1.97961  0.0170381
   1.98077  0.0175068
   1.98187  0.0180444
   1.98291  0.0186765
   1.98389  0.0194331
   1.98482  0.0203415
   1.98569  0.0214157
   1.98652  0.0226519
    1.9873   0.024029
   1.98804  0.0255138
   1.98874   0.027068
    1.9894   0.028654
   1.99002  0.0302393
   1.99061   0.031798
   1.99116  0.0333114
   1.99169  0.0347665
   1.99218  0.0361552
   1.99265  0.0374731
    1.9931  0.0387388
   1.99355  0.0399812
   1.99399  0.0412038
   1.99444   0.042395
   1.99488  0.0435406
   1.99533  0.0446238
   1.99577  0.0456264
   1.99622  0.0465293
   1.99666  0.0473155
   1.99711  0.0479719
   1.99755  0.0484919
     1.998  0.0488768
   1.99844  0.0491369
   1.99889  0.0492908
   1.99933  0.0493642
   1.99978  0.0493874
         2  0.0493874
