         0 3.86701e-19
 0.0002225 2.0247e-19
 0.0006675 -5.4201e-19
 0.0011125 -1.69182e-18
 0.0015575 3.40836e-18
 0.0020025 -2.68926e-18
 0.0024475 -4.18436e-18
 0.0028925 -4.95715e-18
 0.0033375 1.11423e-18
 0.0037825 1.49325e-17
 0.0042275 5.80163e-18
 0.0046725 -6.85278e-18
 0.0051175 1.0527e-17
 0.0055625 -1.0364e-17
 0.0060075 1.51816e-17
 0.0064525 8.25623e-18
 0.0068975 -9.04941e-18
 0.0073476 1.17259e-18
0.00781612 -2.51337e-17
0.00831203 -1.80979e-17
0.00883694 8.36631e-18
0.00939255 2.95009e-17
0.00998065 -4.65772e-18
 0.0106031 -5.33736e-18
  0.011262 -1.97487e-17
 0.0119594 -3.65647e-18
 0.0126977 -9.90048e-18
  0.013479 -3.65126e-18
 0.0143061 4.89071e-18
 0.0151815 1.86412e-18
 0.0161082 5.85544e-18
  0.017089 -1.2159e-18
 0.0181271 -6.1234e-18
  0.019226 -1.2102e-17
 0.0203891 8.30499e-18
 0.0216203 5.93199e-18
 0.0229234 -1.99812e-17
 0.0243028 -1.35825e-17
 0.0257628 -1.1779e-17
 0.0273082 -5.60935e-18
  0.028944 -1.43954e-17
 0.0306754 2.66078e-18
 0.0325081 2.30397e-17
 0.0344479 -7.98371e-18
 0.0365012 -3.18651e-17
 0.0386746 2.78683e-18
  0.040975 6.59877e-18
   0.04341  1.692e-18
 0.0459873 -6.26098e-18
 0.0487154 -5.14077e-18
  0.051603 -9.63297e-18
 0.0546595 -8.4983e-18
 0.0578947 -1.27639e-18
 0.0613191 1.36235e-17
 0.0649437 -2.36245e-17
 0.0687803 -1.33957e-17
 0.0728413 -2.78851e-17
 0.0771397 -1.19517e-17
 0.0816895 -5.96504e-18
 0.0865054 1.00902e-17
 0.0916029 -6.18017e-19
 0.0969985 -4.53351e-18
   0.10271 6.19359e-18
  0.108755 2.25599e-17
  0.115153 2.54331e-18
  0.121926 1.44822e-18
  0.129095 -1.70345e-18
  0.136683 -1.07831e-17
  0.144715 -2.08133e-17
  0.153216 -1.72162e-17
  0.162214 -6.84949e-18
  0.171739 -1.49019e-17
  0.181821 1.77406e-17
  0.192492 -4.49207e-18
  0.203788 1.41768e-17
  0.215744 9.40956e-18
  0.228399 1.18125e-17
  0.241794 -2.25371e-17
  0.255972 -2.37213e-17
   0.27098 5.23849e-18
  0.286865 -8.09389e-18
  0.304824 1.87268e-17
  0.324407 8.17436e-18
  0.343989 1.65574e-18
  0.363571 8.87114e-18
  0.383154 1.99464e-18
  0.402736 3.22153e-18
  0.422319 6.31678e-18
  0.441901 1.37704e-17
  0.461484 -1.79104e-18
  0.481066 1.22221e-17
  0.500648 7.63329e-18
  0.520231 3.67725e-18
  0.539813 4.81198e-18
  0.559396 7.42567e-18
  0.578978 4.39456e-18
   0.59856 -7.0451e-19
  0.618143 -2.50678e-19
  0.637725 9.53504e-19
  0.657308 -5.16417e-18
   0.67689 5.7596e-18
  0.696473 -5.3806e-18
  0.716055 3.29799e-18
  0.735637 3.40324e-18
   0.75522 -8.78182e-19
  0.774802 4.40166e-18
  0.794385 4.38104e-20
  0.813967 -6.61722e-18
  0.833549 -5.77513e-19
  0.853132 7.98875e-18
  0.872714 -4.67702e-18
  0.892297 -1.37878e-18
  0.911879 1.13927e-18
  0.931462 2.0399e-19
  0.951044 5.18494e-18
  0.970626 7.02906e-18
  0.990209 8.41246e-18
   1.00979 -2.56227e-18
   1.02937 1.87463e-19
   1.04896 1.74524e-19
   1.06854 5.73172e-19
   1.08812 -7.12429e-19
    1.1077 1.83724e-18
   1.12729 -1.49406e-18
   1.14687 -6.78286e-19
   1.16645 -1.55167e-18
   1.18603 -5.31368e-18
   1.20562 -6.97289e-18
    1.2252 -5.58788e-18
   1.24478 1.05636e-17
   1.26436 1.25407e-17
   1.28395 3.95412e-18
   1.30353 -2.65005e-18
   1.32311 -1.62124e-18
   1.34269 9.62898e-18
   1.36228 6.82129e-18
   1.38186 1.3937e-17
   1.40144 4.30567e-18
   1.42102 2.38793e-19
   1.44061 2.02009e-19
   1.46019 -1.08678e-18
   1.47977 -7.47176e-19
   1.49935 4.21638e-18
   1.51894 -1.42844e-18
   1.53852 -1.54321e-18
    1.5581 2.79231e-18
   1.57768 -3.52864e-18
   1.59727 -1.71467e-18
   1.61685 1.83647e-18
   1.63643 -2.67181e-18
   1.65601 1.51669e-18
    1.6756 -3.73856e-18
   1.69518 3.46498e-18
   1.71314 1.50932e-18
   1.72902 -3.44592e-18
   1.74403 -2.30893e-18
   1.75821 -8.35774e-18
    1.7716 -1.13241e-17
   1.78426 -6.58654e-18
   1.79621 7.60775e-18
   1.80751 -6.73584e-18
   1.81818 -4.36007e-18
   1.82826 -7.13603e-18
   1.83779 -1.2721e-17
   1.84679 -1.0074e-17
   1.85529 3.32703e-18
   1.86332 -4.83395e-18
   1.87091 -6.76507e-18
   1.87808 7.82943e-18
   1.88485 1.9253e-17
   1.89125 -1.2317e-17
   1.89729 5.87301e-18
     1.903 1.31952e-17
    1.9084 -8.80875e-18
    1.9135 1.5059e-18
   1.91831 -3.19207e-18
   1.92286 4.8844e-18
   1.92716 -4.18108e-18
   1.93122 -2.88166e-17
   1.93506 1.8297e-17
   1.93868 -2.6084e-17
   1.94211 -1.45464e-18
   1.94534 -1.42227e-17
    1.9484 -8.31492e-18
   1.95129 9.11599e-19
   1.95401 1.28207e-17
   1.95659 -5.28394e-17
   1.95903 -1.57181e-17
   1.96133 -1.45734e-17
    1.9635 7.98422e-19
   1.96555 1.14069e-17
   1.96749 -1.22279e-17
   1.96933 -2.47216e-17
   1.97106 -9.37569e-18
   1.97269 1.46566e-17
   1.97424 -1.43843e-18
    1.9757 -4.20963e-17
   1.97708 3.28109e-18
   1.97838 -3.7155e-18
   1.97961 -1.0749e-17
   1.98077 5.26322e-18
   1.98187 1.94648e-17
   1.98291 1.12957e-17
   1.98389 -4.07094e-17
   1.98482 -4.21983e-17
   1.98569 -2.46803e-17
   1.98652 1.01781e-16
    1.9873 -1.86953e-17
   1.98804 -5.9779e-17
   1.98874 1.53126e-16
    1.9894 -1.78834e-16
   1.99002 3.89654e-17
   1.99061 -4.21534e-17
   1.99116 -6.29428e-17
   1.99169 1.7373e-16
   1.99218 -2.43223e-17
   1.99265 -6.83156e-17
    1.9931 9.00128e-17
   1.99355 -2.01489e-16
   1.99399 -7.90837e-17
   1.99444 1.95927e-16
   1.99488 -1.5643e-16
   1.99533 2.21982e-16
   1.99577 -8.16246e-17
   1.99622 -5.44138e-17
   1.99666 -2.12799e-17
   1.99711 8.23685e-18
   1.99755 -2.71909e-17
     1.998 5.95233e-17
   1.99844 -4.13361e-17
   1.99889 9.32542e-18
   1.99933 -5.42908e-18
   1.99978 -9.61032e-18
         2 -8.90342e-18
