         0 1.25464e-22
 0.0002225 9.74946e-23
 0.0006675 -7.50946e-22
 0.0011125 1.43729e-20
 0.0015575 1.73958e-20
 0.0020025 -8.61439e-21
 0.0024475 -2.26852e-20
 0.0028925 1.87263e-20
 0.0033375 1.40046e-19
 0.0037825 9.16487e-20
 0.0042275 8.22473e-20
 0.0046725 6.37446e-20
 0.0051175 -1.27839e-19
 0.0055625 -1.12046e-19
 0.0060075 -6.07446e-20
 0.0064525 -7.92362e-20
 0.0068975 -2.97298e-19
 0.0073476 -9.46574e-20
0.00781612 6.02296e-20
0.00831203 6.80662e-21
0.00883694 2.91927e-20
0.00939255 3.28844e-19
0.00998065 -4.72829e-19
 0.0106031 2.42007e-20
  0.011262 3.06995e-19
 0.0119594 2.6196e-19
 0.0126977 -2.52762e-19
  0.013479 1.84799e-19
 0.0143061  8.524e-21
 0.0151815 -7.59998e-19
 0.0161082 -1.03643e-19
  0.017089 -1.84878e-20
 0.0181271 -2.86665e-19
  0.019226 -5.10763e-19
 0.0203891 -6.57161e-19
 0.0216203 -3.10862e-20
 0.0229234 -5.83262e-19
 0.0243028 -3.70014e-19
 0.0257628 -4.33059e-19
 0.0273082 -4.65949e-19
  0.028944 -3.62232e-20
 0.0306754 8.85316e-20
 0.0325081 6.0081e-19
 0.0344479 3.74951e-19
 0.0365012 -4.4967e-19
 0.0386746 -1.02825e-18
  0.040975 -9.34066e-19
   0.04341 -7.51722e-19
 0.0459873 -3.36742e-19
 0.0487154 -4.47966e-19
  0.051603 -1.16899e-19
 0.0546595 -3.92767e-19
 0.0578947 -3.77823e-19
 0.0613191 2.52923e-19
 0.0649437 -2.52021e-19
 0.0687803 2.7874e-19
 0.0728413 5.25365e-19
 0.0771397 1.00028e-20
 0.0816895 3.71003e-20
 0.0865054 3.66044e-19
 0.0916029 -1.82966e-19
 0.0969985 7.96975e-20
   0.10271 3.91826e-19
  0.108755 -2.55291e-19
  0.115153 2.67668e-19
  0.121926 1.03485e-19
  0.129095 -3.783e-20
  0.136683 8.60585e-20
  0.144715 1.40442e-20
  0.153216 6.88902e-20
  0.162214 2.48163e-19
  0.171739 -3.32182e-19
  0.181821 -1.07212e-19
  0.192492 -1.24601e-19
  0.203788 2.06848e-19
  0.215744 6.62702e-20
  0.228399 -2.1329e-19
  0.241794 2.40328e-19
  0.255972 5.94005e-20
   0.27098 -2.58181e-19
  0.286865 1.47007e-20
  0.304824 -3.02536e-20
  0.324407 9.79566e-20
  0.343989 -1.55583e-22
  0.363571 -6.43886e-20
  0.383154 4.58664e-20
  0.402736 -1.28741e-19
  0.422319 -8.82046e-20
  0.441901 -3.01771e-20
  0.461484 3.9019e-20
  0.481066 -2.81945e-20
  0.500648 -4.21939e-20
  0.520231 3.73811e-20
  0.539813 5.00251e-21
  0.559396 -1.93766e-20
  0.578978 1.79181e-20
   0.59856 1.18992e-19
  0.618143 -3.37837e-20
  0.637725 -7.5124e-20
  0.657308 -4.22481e-20
   0.67689 -3.59662e-20
  0.696473 -3.92034e-20
  0.716055 2.12384e-20
  0.735637 1.41365e-20
   0.75522 1.30659e-20
  0.774802 2.62189e-20
  0.794385 7.07553e-20
  0.813967 -1.88453e-20
  0.833549 9.88006e-21
  0.853132 -4.64581e-21
  0.872714 8.75613e-20
  0.892297 -4.94768e-20
  0.911879 1.43842e-20
  0.931462 9.64218e-20
  0.951044 1.92466e-20
  0.970626 -4.83936e-20
  0.990209 -3.62191e-20
   1.00979 -4.04936e-21
   1.02937 1.64194e-20
   1.04896 -4.2022e-20
   1.06854 3.66515e-21
   1.08812 5.48124e-20
    1.1077 -1.70124e-20
   1.12729 2.27689e-21
   1.14687 1.37485e-20
   1.16645 -4.00222e-20
   1.18603 1.06755e-19
   1.20562 5.15267e-21
    1.2252 -5.85176e-20
   1.24478 4.51191e-20
   1.26436 -3.46546e-20
   1.28395 6.86837e-20
   1.30353 -5.36653e-21
   1.32311 -7.43166e-21
   1.34269 1.20501e-19
   1.36228 3.87854e-20
   1.38186 3.4927e-20
   1.40144 -3.54545e-20
   1.42102 -4.08202e-21
   1.44061 -6.51477e-20
   1.46019 -6.51746e-20
   1.47977 -7.02346e-20
   1.49935 -2.96388e-20
   1.51894 -4.18708e-20
   1.53852 8.38292e-20
    1.5581 1.40816e-19
   1.57768 -1.82103e-20
   1.59727 2.60859e-21
   1.61685 5.73977e-20
   1.63643 -9.98919e-20
   1.65601 -1.39483e-20
    1.6756 -1.76694e-19
   1.69518 -8.53267e-21
   1.71314 8.35671e-20
   1.72902 -4.59921e-20
   1.74403   6.68e-20
   1.75821 3.0627e-19
    1.7716 2.68602e-19
   1.78426 -1.00446e-19
   1.79621 2.10042e-19
   1.80751 1.4988e-20
   1.81818 -3.48009e-19
   1.82826 1.0119e-19
   1.83779 -1.46675e-19
   1.84679 -5.61487e-20
   1.85529 1.13853e-19
   1.86332 2.75393e-19
   1.87091 2.63728e-19
   1.87808 1.9677e-19
   1.88485 1.42629e-19
   1.89125 1.79934e-19
   1.89729 1.32806e-19
     1.903 -8.90157e-20
    1.9084 -3.80778e-19
    1.9135 -1.85399e-20
   1.91831 -7.85439e-20
   1.92286 1.50687e-19
   1.92716 -1.19709e-19
   1.93122 -7.90071e-19
   1.93506 -5.80603e-19
   1.93868 1.73168e-19
   1.94211 6.43375e-19
   1.94534 -5.94772e-20
    1.9484 -1.14561e-18
   1.95129 -5.94403e-20
   1.95401 -3.76136e-19
   1.95659 1.47959e-19
   1.95903 4.78489e-19
   1.96133 -1.85004e-19
    1.9635 9.28858e-19
   1.96555 7.85999e-19
   1.96749 4.38792e-19
   1.96933 -6.77063e-19
   1.97106 -4.96433e-19
   1.97269 7.40619e-20
   1.97424 -4.85764e-19
    1.9757 3.58049e-19
   1.97708 7.55559e-19
   1.97838 1.32223e-19
   1.97961 1.33694e-18
   1.98077 -1.29908e-18
   1.98187 -1.62693e-18
   1.98291 2.33471e-18
   1.98389 6.08517e-19
   1.98482 -1.28711e-18
   1.98569 3.18926e-19
   1.98652 -3.49092e-19
    1.9873 1.04467e-18
   1.98804 -2.20038e-18
   1.98874 5.65652e-19
    1.9894 -3.53182e-20
   1.99002 -4.48174e-20
   1.99061 1.01852e-18
   1.99116 -3.36547e-19
   1.99169 1.8634e-19
   1.99218 4.00747e-19
   1.99265 -2.83194e-21
    1.9931 -1.40954e-18
   1.99355 3.75734e-19
   1.99399 -6.22717e-20
   1.99444 -1.85762e-20
   1.99488 -4.06196e-19
   1.99533 9.38897e-20
   1.99577 1.32259e-19
   1.99622 -6.59952e-19
   1.99666 5.24597e-19
   1.99711 -4.34247e-19
   1.99755 8.37522e-20
     1.998 -1.71994e-19
   1.99844 -1.13489e-19
   1.99889 -2.38825e-20
   1.99933 3.17231e-20
   1.99978 -8.24752e-21
         2 -8.36093e-21
