         0 1.56991e-18
 0.0002225 -2.21702e-18
 0.0006675 -7.59171e-18
 0.0011125 -1.60633e-17
 0.0015575 -2.01052e-17
 0.0020025 -3.71487e-17
 0.0024475 -3.27382e-17
 0.0028925 -2.8298e-17
 0.0033375 -5.89342e-17
 0.0037825 -2.49951e-17
 0.0042275 -3.81616e-17
 0.0046725 -7.99382e-17
 0.0051175 -6.34053e-17
 0.0055625 -6.09339e-17
 0.0060075 -1.14875e-16
 0.0064525 -6.93582e-17
 0.0068975 -5.1549e-17
 0.0073476 -7.05714e-17
0.00781612 -8.94157e-17
0.00831203 -6.77601e-17
0.00883694 -7.36536e-17
0.00939255 -4.11603e-17
0.00998065 -2.01039e-17
 0.0106031 -5.1941e-17
  0.011262 -1.04819e-16
 0.0119594 -9.17176e-17
 0.0126977 -3.78635e-17
  0.013479 -1.04975e-16
 0.0143061 -2.0592e-17
 0.0151815 -6.50469e-17
 0.0161082 -1.32902e-17
  0.017089 -1.26874e-17
 0.0181271 -5.61759e-17
  0.019226 -7.02996e-17
 0.0203891 -2.69954e-17
 0.0216203 -3.8613e-17
 0.0229234 -2.68502e-17
 0.0243028 -3.77182e-17
 0.0257628 -3.70665e-17
 0.0273082 3.65932e-17
  0.028944 -7.39922e-17
 0.0306754 -5.57415e-18
 0.0325081 -2.63514e-17
 0.0344479 6.85008e-19
 0.0365012 2.21911e-17
 0.0386746 -5.38097e-18
  0.040975 -7.76268e-18
   0.04341 4.09633e-17
 0.0459873 1.33005e-18
 0.0487154 1.79624e-16
  0.051603 3.85333e-17
 0.0546595 1.32219e-17
 0.0578947 -3.45557e-18
 0.0613191 5.48309e-17
 0.0649437 -8.24091e-18
 0.0687803 3.15858e-19
 0.0728413 1.79969e-17
 0.0771397 1.92622e-17
 0.0816895 5.6234e-17
 0.0865054 2.24201e-17
 0.0916029 1.30459e-17
 0.0969985 2.33151e-17
   0.10271 5.90937e-17
  0.108755 4.73631e-17
  0.115153 1.00681e-16
  0.121926 2.71103e-17
  0.129095 5.72636e-18
  0.136683 -7.60295e-18
  0.144715 4.84144e-17
  0.153216 1.80252e-18
  0.162214 2.46908e-17
  0.171739 -1.11647e-18
  0.181821 1.17898e-17
  0.192492 1.49325e-17
  0.203788 2.99673e-17
  0.215744 6.01331e-18
  0.228399 -1.58947e-17
  0.241794 -4.11016e-17
  0.255972 1.36279e-16
   0.27098 -6.63122e-17
  0.286865 4.98525e-17
  0.304824 4.45963e-17
  0.324407 -6.74204e-17
  0.343989 -1.47395e-17
  0.363571 3.28841e-18
  0.383154 -2.04192e-17
  0.402736 1.83852e-17
  0.422319 -8.31619e-18
  0.441901 -5.58841e-17
  0.461484 -5.50562e-17
  0.481066 2.29113e-17
  0.500648 4.58315e-17
  0.520231 -3.46862e-17
  0.539813 3.64308e-18
  0.559396 6.07039e-17
  0.578978 6.01737e-17
   0.59856 -1.14881e-16
  0.618143 8.62042e-18
  0.637725 1.47277e-17
  0.657308 8.65645e-17
   0.67689 -1.10945e-17
  0.696473 5.74786e-17
  0.716055 8.10523e-17
  0.735637 1.66139e-17
   0.75522 -3.82132e-18
  0.774802 -1.73394e-16
  0.794385 4.84026e-17
  0.813967 1.77258e-18
  0.833549 7.83694e-17
  0.853132 5.44079e-18
  0.872714 1.16107e-16
  0.892297 3.46902e-17
  0.911879 -1.13028e-18
  0.931462 5.02091e-18
  0.951044 1.04914e-17
  0.970626 2.66252e-17
  0.990209 -6.78291e-18
   1.00979 3.00113e-17
   1.02937 4.12771e-18
   1.04896 -2.15583e-18
   1.06854 3.96995e-17
   1.08812 4.33984e-17
    1.1077 4.11655e-17
   1.12729 -1.42812e-17
   1.14687 -6.94054e-18
   1.16645 -4.48441e-17
   1.18603 9.54412e-18
   1.20562 -1.73145e-17
    1.2252 -1.30389e-17
   1.24478 3.55703e-17
   1.26436 -2.17489e-17
   1.28395 -2.89081e-18
   1.30353 -3.00075e-17
   1.32311  4.755e-17
   1.34269 7.89695e-18
   1.36228 5.12421e-17
   1.38186 2.52151e-17
   1.40144 -4.38918e-17
   1.42102 -4.50395e-17
   1.44061 3.31618e-17
   1.46019 -6.09156e-17
   1.47977 -7.81439e-17
   1.49935 -1.34817e-17
   1.51894 -2.33001e-17
   1.53852 4.79557e-17
    1.5581 2.05245e-17
   1.57768 1.43561e-17
   1.59727 -5.12909e-18
   1.61685 1.76277e-17
   1.63643 -1.24727e-17
   1.65601 -2.08393e-17
    1.6756 -6.5118e-18
   1.69518 -3.06214e-17
   1.71314 -9.07684e-18
   1.72902 -6.39713e-17
   1.74403 -4.2528e-17
   1.75821 -2.98211e-17
    1.7716 -3.6141e-17
   1.78426 -6.64561e-17
   1.79621 -2.41325e-17
   1.80751 3.26455e-17
   1.81818 -5.34261e-17
   1.82826 5.47583e-18
   1.83779 -7.60245e-17
   1.84679 1.3161e-17
   1.85529 5.87305e-17
   1.86332 5.16037e-17
   1.87091 1.31289e-17
   1.87808 6.8228e-17
   1.88485 3.20657e-17
   1.89125 -4.87992e-18
   1.89729 7.62262e-18
     1.903 8.42594e-17
    1.9084 3.03697e-17
    1.9135 4.79712e-17
   1.91831 3.86256e-17
   1.92286 2.33035e-17
   1.92716 -1.36213e-17
   1.93122 8.76751e-17
   1.93506 -2.89655e-17
   1.93868 1.11767e-16
   1.94211 4.07764e-18
   1.94534 -2.48831e-17
    1.9484 -7.65984e-19
   1.95129 1.34825e-16
   1.95401 4.97198e-17
   1.95659 -5.55006e-17
   1.95903 3.0441e-17
   1.96133 9.92283e-17
    1.9635 -6.89652e-17
   1.96555 3.83524e-17
   1.96749 7.15566e-17
   1.96933 2.88914e-17
   1.97106 -4.1058e-17
   1.97269 3.85478e-17
   1.97424 2.7439e-16
    1.9757 -7.65624e-18
   1.97708 -3.41761e-17
   1.97838 -6.54491e-17
   1.97961 -1.09673e-16
   1.98077 5.73671e-16
   1.98187 -4.23731e-16
   1.98291 3.15624e-16
   1.98389 9.43158e-17
   1.98482 -3.3883e-17
   1.98569 -3.40697e-16
   1.98652 2.86177e-16
    1.9873 3.42263e-16
   1.98804 -2.34256e-16
   1.98874 -5.4154e-17
    1.9894 1.20194e-17
   1.99002 2.11803e-18
   1.99061 -3.48271e-17
   1.99116 1.27682e-16
   1.99169 1.43375e-16
   1.99218 -2.074e-16
   1.99265 1.02576e-16
    1.9931 2.27712e-17
   1.99355 3.82818e-16
   1.99399 -7.08315e-17
   1.99444 6.91575e-16
   1.99488 -1.42792e-16
   1.99533 -5.53938e-16
   1.99577 3.72071e-16
   1.99622 1.06026e-16
   1.99666 -9.65722e-17
   1.99711 8.80307e-17
   1.99755 6.34696e-17
     1.998 -9.65469e-17
   1.99844 -8.50637e-17
   1.99889 1.79112e-16
   1.99933 -5.04337e-17
   1.99978 2.57336e-18
         2 -5.46062e-19
