         0 1.01409e-22
 0.0002225 1.37888e-22
 0.0006675 7.79901e-20
 0.0011125 1.70589e-19
 0.0015575 4.06998e-19
 0.0020025 8.31002e-19
 0.0024475 9.09507e-19
 0.0028925 1.37713e-18
 0.0033375 7.28866e-19
 0.0037825 1.86767e-18
 0.0042275 2.43902e-18
 0.0046725 3.63233e-18
 0.0051175 3.10883e-18
 0.0055625 3.54961e-18
 0.0060075 8.68936e-18
 0.0064525 3.71207e-18
 0.0068975 8.8086e-18
 0.0073476 4.87593e-18
0.00781612 5.63148e-18
0.00831203 6.60404e-18
0.00883694 8.72922e-18
0.00939255 4.69583e-18
0.00998065 6.14632e-18
 0.0106031 1.21743e-17
  0.011262 8.39584e-18
 0.0119594 7.72105e-18
 0.0126977 2.7449e-18
  0.013479 1.09246e-17
 0.0143061 9.20758e-18
 0.0151815 1.34295e-17
 0.0161082 1.34766e-17
  0.017089 1.24327e-17
 0.0181271 1.2898e-17
  0.019226 1.34268e-17
 0.0203891 1.22781e-17
 0.0216203 1.70935e-17
 0.0229234 1.58047e-17
 0.0243028 5.77371e-18
 0.0257628 1.01746e-18
 0.0273082 2.19599e-19
  0.028944 8.89061e-18
 0.0306754 1.6473e-17
 0.0325081 4.52412e-18
 0.0344479 -4.56857e-19
 0.0365012 2.19942e-18
 0.0386746 -3.78884e-18
  0.040975 4.93491e-18
   0.04341 -2.83093e-18
 0.0459873 7.69471e-18
 0.0487154 7.16861e-18
  0.051603 -1.21463e-17
 0.0546595 3.8473e-18
 0.0578947 1.20889e-17
 0.0613191 -1.64382e-18
 0.0649437 3.55882e-18
 0.0687803 -2.05978e-18
 0.0728413 4.15803e-18
 0.0771397 9.21395e-18
 0.0816895 9.86149e-18
 0.0865054 1.05298e-18
 0.0916029 7.62926e-18
 0.0969985 9.83139e-18
   0.10271 -2.75717e-18
  0.108755 -7.98903e-18
  0.115153 -9.43131e-18
  0.121926 -2.06259e-18
  0.129095 -6.76598e-18
  0.136683 -7.50976e-18
  0.144715 -1.59015e-18
  0.153216 1.96169e-18
  0.162214 -3.51594e-19
  0.171739 -5.28182e-18
  0.181821 -6.69924e-18
  0.192492 -5.74104e-18
  0.203788 -1.5178e-17
  0.215744 -3.66317e-18
  0.228399 -1.04732e-17
  0.241794 -1.76755e-17
  0.255972 -1.71661e-17
   0.27098 -9.59781e-18
  0.286865 -9.45505e-18
  0.304824 -4.55753e-18
  0.324407 -3.54491e-19
  0.343989 -6.21699e-18
  0.363571 -7.83991e-19
  0.383154 2.19862e-18
  0.402736 -1.67682e-18
  0.422319 -5.40732e-18
  0.441901 -1.13364e-19
  0.461484 -5.31649e-19
  0.481066 4.26482e-19
  0.500648 -3.44365e-18
  0.520231 -3.518e-18
  0.539813 -8.05241e-18
  0.559396 -8.46281e-18
  0.578978 -1.03664e-17
   0.59856 -3.50225e-18
  0.618143 -8.77232e-19
  0.637725 -4.55165e-18
  0.657308 -1.3041e-18
   0.67689 6.62343e-19
  0.696473 6.27979e-18
  0.716055 -6.31765e-19
  0.735637 2.24383e-18
   0.75522 1.34669e-19
  0.774802 -1.43737e-18
  0.794385 3.35253e-19
  0.813967 5.3573e-19
  0.833549 -4.67792e-18
  0.853132 -1.21371e-18
  0.872714 1.07467e-18
  0.892297 7.7064e-20
  0.911879 -1.34456e-18
  0.931462 -4.4363e-18
  0.951044 2.21309e-18
  0.970626 -5.49478e-18
  0.990209 -9.11752e-18
   1.00979 -3.78697e-18
   1.02937 -1.15001e-18
   1.04896 -8.92302e-18
   1.06854 -1.15286e-18
   1.08812 4.56408e-18
    1.1077 3.1088e-19
   1.12729 5.19532e-19
   1.14687 4.83112e-18
   1.16645 4.10227e-18
   1.18603 1.15333e-18
   1.20562 -2.17241e-18
    1.2252 -3.92991e-18
   1.24478 -1.53356e-18
   1.26436 -4.39287e-18
   1.28395 -1.24319e-18
   1.30353 -5.84099e-19
   1.32311 -6.34897e-18
   1.34269 1.11118e-18
   1.36228 -3.11843e-18
   1.38186 2.07319e-18
   1.40144 -3.67085e-19
   1.42102 -5.93308e-18
   1.44061 -1.62568e-18
   1.46019 1.90795e-18
   1.47977 -2.01748e-18
   1.49935 -4.60194e-18
   1.51894 2.05842e-19
   1.53852 3.48107e-18
    1.5581 5.67893e-18
   1.57768 3.97824e-19
   1.59727 -4.57176e-18
   1.61685 -6.80333e-18
   1.63643 -4.61234e-18
   1.65601 -1.33375e-17
    1.6756 -1.23474e-17
   1.69518 -1.57125e-17
   1.71314 -5.68132e-18
   1.72902 -7.59011e-18
   1.74403 -7.86574e-18
   1.75821 -8.49024e-18
    1.7716 -4.92884e-18
   1.78426 -3.76888e-18
   1.79621 -2.27618e-18
   1.80751 -7.39247e-18
   1.81818 -1.66405e-18
   1.82826 -2.46442e-18
   1.83779 1.67366e-19
   1.84679 4.76619e-18
   1.85529 1.48555e-18
   1.86332 2.05932e-18
   1.87091 2.79755e-18
   1.87808 6.93397e-18
   1.88485 5.24511e-18
   1.89125 7.25323e-19
   1.89729 1.10962e-17
     1.903 8.79692e-18
    1.9084 5.42184e-18
    1.9135 1.68448e-17
   1.91831 2.44805e-17
   1.92286 2.90899e-18
   1.92716 1.39873e-17
   1.93122 2.69128e-17
   1.93506 -1.46325e-17
   1.93868 1.6738e-17
   1.94211 -2.57181e-17
   1.94534 -3.89012e-19
    1.9484 2.71296e-18
   1.95129 7.19112e-18
   1.95401 9.34263e-18
   1.95659 9.61299e-18
   1.95903 -2.57618e-17
   1.96133 4.46923e-17
    1.9635 -9.72624e-18
   1.96555 1.10115e-17
   1.96749 8.76377e-18
   1.96933 1.46711e-17
   1.97106 3.08366e-17
   1.97269 -1.10359e-17
   1.97424 5.02834e-17
    1.9757 2.58103e-17
   1.97708 -1.70316e-17
   1.97838 9.00682e-18
   1.97961 -2.02906e-17
   1.98077 6.98823e-17
   1.98187 -1.82545e-17
   1.98291 2.59081e-17
   1.98389 6.74301e-18
   1.98482 2.61023e-17
   1.98569 -9.83755e-18
   1.98652 3.04756e-17
    1.9873 2.0025e-17
   1.98804 2.75409e-17
   1.98874 -2.08174e-18
    1.9894 2.66662e-18
   1.99002 3.7692e-17
   1.99061 -2.63191e-17
   1.99116 1.2148e-17
   1.99169 2.43839e-17
   1.99218 -2.02307e-17
   1.99265 3.1043e-17
    1.9931 3.11641e-18
   1.99355 6.80307e-19
   1.99399 1.34358e-17
   1.99444 3.06876e-17
   1.99488 3.2288e-18
   1.99533 -3.49812e-17
   1.99577 2.52098e-17
   1.99622 7.77598e-18
   1.99666 3.62934e-18
   1.99711 5.57361e-18
   1.99755 4.92349e-18
     1.998 -4.06682e-18
   1.99844 -6.99333e-19
   1.99889 1.63438e-18
   1.99933 -2.67896e-19
   1.99978 -8.55578e-20
         2 -8.75686e-20
