         0 6.7499e-20
 0.0002225 7.24709e-20
 0.0006675 1.80713e-19
 0.0011125 1.34715e-20
 0.0015575 3.05243e-19
 0.0020025 -3.63869e-20
 0.0024475 -2.46743e-19
 0.0028925 -1.25977e-19
 0.0033375 -8.20166e-20
 0.0037825 -4.75417e-20
 0.0042275 2.58318e-19
 0.0046725 -4.49741e-19
 0.0051175 -4.13682e-19
 0.0055625 1.9925e-19
 0.0060075 -1.51842e-19
 0.0064525 6.4344e-19
 0.0068975 5.20988e-19
 0.0073476 -5.13497e-19
0.00781612 -2.4848e-19
0.00831203 -4.1717e-19
0.00883694 -1.02444e-18
0.00939255 -7.67218e-19
0.00998065 -1.09075e-19
 0.0106031 -6.93371e-19
  0.011262 -7.27907e-19
 0.0119594 3.67302e-19
 0.0126977 -1.19833e-18
  0.013479 -3.41736e-19
 0.0143061 8.51905e-19
 0.0151815 -2.82743e-19
 0.0161082 -2.63253e-19
  0.017089 -1.41607e-18
 0.0181271 3.53276e-20
  0.019226 1.52135e-19
 0.0203891 -3.63338e-20
 0.0216203 -1.18412e-19
 0.0229234 -1.58137e-19
 0.0243028 6.03571e-19
 0.0257628 6.85563e-19
 0.0273082 -2.81446e-19
  0.028944 -9.06606e-19
 0.0306754 8.19791e-19
 0.0325081 2.75171e-19
 0.0344479 -2.2263e-19
 0.0365012 1.39186e-19
 0.0386746 -7.01262e-21
  0.040975 -2.29834e-19
   0.04341 6.94917e-19
 0.0459873 5.91424e-19
 0.0487154 4.59322e-20
  0.051603 -6.46238e-19
 0.0546595 -3.95142e-19
 0.0578947 -6.41685e-19
 0.0613191 -1.63706e-19
 0.0649437 1.56776e-19
 0.0687803 1.32123e-18
 0.0728413 1.04951e-20
 0.0771397 -1.18175e-18
 0.0816895 -2.65122e-19
 0.0865054 2.63142e-19
 0.0916029 -6.70579e-21
 0.0969985 -3.09621e-19
   0.10271 -5.51059e-19
  0.108755 -1.08235e-18
  0.115153 2.70192e-19
  0.121926 -2.8512e-19
  0.129095 -1.58957e-19
  0.136683 -3.1444e-19
  0.144715 -8.2614e-20
  0.153216 -1.20627e-19
  0.162214 3.26724e-21
  0.171739 2.00766e-19
  0.181821 -8.45114e-20
  0.192492 7.50745e-20
  0.203788 2.76127e-19
  0.215744 7.59982e-20
  0.228399 9.98485e-20
  0.241794 -1.19157e-19
  0.255972 -1.11023e-19
   0.27098 -1.35259e-19
  0.286865 1.37084e-19
  0.304824 -1.18215e-19
  0.324407 7.4933e-19
  0.343989 -1.58107e-19
  0.363571 1.6456e-19
  0.383154 2.65919e-19
  0.402736 2.90268e-19
  0.422319 -6.03151e-19
  0.441901 3.2953e-19
  0.461484 -2.61885e-19
  0.481066 1.45236e-19
  0.500648 -1.39993e-19
  0.520231 5.56673e-20
  0.539813 1.2604e-19
  0.559396 2.91441e-19
  0.578978 -6.66501e-20
   0.59856 1.83473e-19
  0.618143 -4.78752e-19
  0.637725 8.52549e-21
  0.657308 1.0848e-19
   0.67689 -1.17864e-20
  0.696473 -1.87242e-19
  0.716055 -1.01485e-20
  0.735637 -2.20847e-19
   0.75522 -3.73075e-19
  0.774802 -6.44125e-20
  0.794385 1.21752e-19
  0.813967 -1.67601e-20
  0.833549 1.28435e-20
  0.853132 2.55845e-21
  0.872714 -1.97569e-19
  0.892297 1.20489e-20
  0.911879 8.58509e-20
  0.931462 6.73539e-20
  0.951044 -1.24338e-19
  0.970626 -1.20839e-19
  0.990209 -1.4367e-20
   1.00979 1.98587e-19
   1.02937 -4.97475e-20
   1.04896 5.44061e-20
   1.06854 -2.37921e-19
   1.08812 -9.3213e-20
    1.1077 3.72618e-19
   1.12729 -1.7747e-19
   1.14687 -2.38091e-19
   1.16645 2.29981e-19
   1.18603 -1.42301e-19
   1.20562 -5.84209e-20
    1.2252 1.36568e-19
   1.24478 6.94486e-20
   1.26436 -1.1531e-19
   1.28395 9.08784e-20
   1.30353 3.10488e-20
   1.32311 3.24914e-20
   1.34269 -5.35618e-20
   1.36228 2.27152e-19
   1.38186 -3.53515e-19
   1.40144 2.29164e-19
   1.42102 4.01925e-20
   1.44061 3.95961e-20
   1.46019 2.3911e-20
   1.47977 2.8753e-21
   1.49935 3.79731e-20
   1.51894 -1.60123e-19
   1.53852 -2.79347e-19
    1.5581 5.34699e-20
   1.57768 8.6298e-19
   1.59727 2.55893e-19
   1.61685 5.29215e-20
   1.63643 -6.21354e-19
   1.65601 1.71448e-19
    1.6756 3.31683e-19
   1.69518 -1.51334e-19
   1.71314 2.19001e-19
   1.72902 -1.85394e-19
   1.74403 2.72883e-19
   1.75821 -8.73966e-19
    1.7716 -2.84821e-19
   1.78426  9.004e-20
   1.79621 2.16492e-19
   1.80751 3.09752e-19
   1.81818 -1.2969e-19
   1.82826 -8.51283e-19
   1.83779 -4.09839e-19
   1.84679 -3.19118e-19
   1.85529 -1.00495e-19
   1.86332 -3.13588e-19
   1.87091 -1.44199e-21
   1.87808 2.31902e-19
   1.88485  7.234e-19
   1.89125 1.21328e-19
   1.89729 1.13996e-18
     1.903 -7.40467e-20
    1.9084 3.78869e-19
    1.9135 -3.35062e-20
   1.91831 5.34902e-20
   1.92286 -1.22233e-18
   1.92716 -3.43683e-19
   1.93122 -4.86388e-19
   1.93506 -6.13772e-19
   1.93868 2.68349e-19
   1.94211 -8.67405e-20
   1.94534 -5.60407e-19
    1.9484 1.96596e-19
   1.95129 6.4033e-20
   1.95401 -9.53944e-19
   1.95659 -2.68705e-19
   1.95903 -1.4408e-18
   1.96133 7.9583e-19
    1.9635 -1.45374e-19
   1.96555 -9.45737e-19
   1.96749 -4.41808e-19
   1.96933 1.18659e-19
   1.97106 2.3718e-20
   1.97269 -2.36528e-18
   1.97424 2.60535e-18
    1.9757 -9.15854e-19
   1.97708 6.06672e-19
   1.97838 6.67552e-19
   1.97961 -2.51947e-19
   1.98077 1.20121e-18
   1.98187 -7.62816e-19
   1.98291 -6.65694e-19
   1.98389 8.76361e-21
   1.98482 1.73856e-18
   1.98569 -1.85787e-18
   1.98652 -9.95083e-19
    1.9873 1.01747e-18
   1.98804 1.05937e-18
   1.98874 -2.11884e-18
    1.9894 1.26644e-18
   1.99002 -2.20876e-18
   1.99061 -6.30177e-19
   1.99116 3.56141e-18
   1.99169 -1.75929e-18
   1.99218 4.77445e-18
   1.99265 -4.96145e-18
    1.9931 -6.35908e-19
   1.99355 9.92244e-19
   1.99399 1.47534e-18
   1.99444 2.82283e-18
   1.99488 -6.07649e-18
   1.99533 2.19896e-18
   1.99577 3.49725e-19
   1.99622 4.80627e-20
   1.99666 -1.13309e-18
   1.99711 1.5428e-18
   1.99755 2.42647e-18
     1.998 -2.0449e-18
   1.99844 1.91423e-18
   1.99889 -2.67972e-18
   1.99933 1.4641e-18
   1.99978 4.16161e-19
         2 3.9407e-19
