         0 2.62854e-19
 0.0002225 -5.88158e-19
 0.0006675 -6.20712e-19
 0.0011125 -1.05025e-18
 0.0015575 -4.65053e-19
 0.0020025 -7.59228e-19
 0.0024475 -1.18635e-18
 0.0028925 -2.94132e-12
 0.0033375 -1.42345e-19
 0.0037825 -1.36779e-19
 0.0042275 -5.73086e-12
 0.0046725 -6.91568e-12
 0.0051175 -8.57348e-19
 0.0055625 -8.49687e-19
 0.0060075 -1.30814e-18
 0.0064525 -4.28897e-12
 0.0068975 -1.45808e-18
 0.0073476 -8.61142e-19
0.00781612 -5.76945e-12
0.00831203 -1.03057e-18
0.00883694 -1.30509e-19
0.00939255 -5.60978e-19
0.00998065 -2.57974e-12
 0.0106031 -1.52888e-18
  0.011262 -1.05914e-18
 0.0119594 -8.39307e-19
 0.0126977 -3.09327e-19
  0.013479 -2.04294e-12
 0.0143061 6.09925e-12
 0.0151815 -1.44099e-18
 0.0161082 1.4911e-11
  0.017089 -4.13556e-19
 0.0181271 1.22568e-11
  0.019226 -1.44407e-18
 0.0203891 -7.56198e-19
 0.0216203 -1.50001e-18
 0.0229234 -1.84684e-18
 0.0243028 -6.97798e-19
 0.0257628 -6.08518e-19
 0.0273082 -6.85114e-19
  0.028944 -3.2787e-19
 0.0306754 -1.65611e-18
 0.0325081 -7.40868e-20
 0.0344479 -8.96134e-19
 0.0365012 -1.46615e-18
 0.0386746 -8.7246e-19
  0.040975 -6.9245e-19
   0.04341 -1.34683e-11
 0.0459873 2.13995e-19
 0.0487154 -1.27454e-19
  0.051603 2.28264e-12
 0.0546595 -6.76657e-19
 0.0578947 -9.92253e-19
 0.0613191 -2.42712e-19
 0.0649437 -4.87986e-19
 0.0687803 -5.82513e-12
 0.0728413 -5.43609e-19
 0.0771397 -1.05911e-18
 0.0816895 -7.07569e-13
 0.0865054 5.12317e-20
 0.0916029 -6.64382e-19
 0.0969985 -7.86254e-19
   0.10271 -6.9347e-19
  0.108755 -1.9796e-19
  0.115153 -5.94147e-19
  0.121926 4.01384e-13
  0.129095 1.34484e-19
  0.136683 3.58869e-19
  0.144715 1.25663e-19
  0.153216 -1.90668e-19
  0.162214 2.88681e-12
  0.171739 -1.3025e-19
  0.181821 -8.93448e-20
  0.192492 2.88864e-19
  0.203788 -1.20347e-12
  0.215744 1.13663e-19
  0.228399 2.19578e-19
  0.241794 1.9478e-19
  0.255972 -1.13885e-20
   0.27098 -9.02274e-12
  0.286865 1.50088e-19
  0.304824 2.5624e-19
  0.324407 1.34546e-12
  0.343989 1.11596e-19
  0.363571 -1.43687e-19
  0.383154 2.22613e-19
  0.402736 -9.24692e-12
  0.422319 4.37915e-19
  0.441901 2.77012e-19
  0.461484 -9.13798e-12
  0.481066 3.02615e-19
  0.500648 -1.62272e-19
  0.520231 -7.9472e-22
  0.539813 2.19239e-12
  0.559396 3.70053e-19
  0.578978 -1.81797e-19
   0.59856 -2.12377e-19
  0.618143 1.92149e-19
  0.637725 -1.26907e-11
  0.657308 -1.34975e-20
   0.67689 1.50257e-19
  0.696473 -1.08877e-12
  0.716055 -9.61985e-12
  0.735637 -7.83673e-13
   0.75522 -2.52195e-12
  0.774802 1.48166e-19
  0.794385 -1.61153e-12
  0.813967 -2.81071e-12
  0.833549 8.33649e-20
  0.853132 3.05496e-20
  0.872714 -3.73027e-20
  0.892297 -1.92003e-19
  0.911879 1.51689e-19
  0.931462 -1.43213e-19
  0.951044 -2.21558e-12
  0.970626 -4.07777e-19
  0.990209 -2.25223e-12
   1.00979 -2.37288e-20
   1.02937 -1.09379e-19
   1.04896 3.02672e-19
   1.06854 -4.12756e-21
   1.08812 1.36132e-19
    1.1077 -1.50125e-19
   1.12729 -3.96325e-19
   1.14687 3.42895e-20
   1.16645 -2.85015e-20
   1.18603 6.43515e-20
   1.20562 1.39485e-20
    1.2252 7.28446e-20
   1.24478 -9.1415e-20
   1.26436 -7.02639e-20
   1.28395 -7.16762e-12
   1.30353 -9.23171e-20
   1.32311 2.55527e-19
   1.34269 -1.66164e-19
   1.36228 8.1584e-20
   1.38186 9.2853e-13
   1.40144 1.86483e-22
   1.42102 -4.72077e-12
   1.44061 -1.06845e-19
   1.46019 1.27542e-19
   1.47977 3.58312e-19
   1.49935 1.41897e-19
   1.51894 8.62578e-20
   1.53852 2.58645e-19
    1.5581 4.14873e-19
   1.57768 6.42243e-20
   1.59727 -1.3119e-11
   1.61685 -3.47582e-12
   1.63643 -1.67347e-20
   1.65601 6.25829e-21
    1.6756 -1.88551e-19
   1.69518 -6.50473e-13
   1.71314 -3.26066e-19
   1.72902 8.42575e-12
   1.74403 7.81157e-20
   1.75821 5.22505e-19
    1.7716 3.32008e-19
   1.78426 9.82932e-19
   1.79621 7.68268e-19
   1.80751 -6.2244e-20
   1.81818 -3.09399e-19
   1.82826 2.09049e-19
   1.83779 -1.14874e-11
   1.84679 -8.90605e-12
   1.85529 -3.16305e-19
   1.86332 2.94049e-19
   1.87091 5.69046e-19
   1.87808 1.00336e-18
   1.88485 3.66731e-12
   1.89125 4.63835e-13
   1.89729 5.16815e-19
     1.903 1.66459e-18
    1.9084 4.88296e-19
    1.9135 6.07778e-19
   1.91831 7.57597e-19
   1.92286 1.5727e-18
   1.92716  9.738e-19
   1.93122 -4.50561e-12
   1.93506 8.89616e-19
   1.93868 -2.31954e-19
   1.94211 -6.21126e-19
   1.94534 -8.37507e-19
    1.9484 -6.84327e-19
   1.95129 7.59961e-20
   1.95401 1.68237e-18
   1.95659 1.84801e-11
   1.95903 2.44875e-18
   1.96133 -4.24236e-18
    1.9635 -5.69547e-19
   1.96555 1.68705e-12
   1.96749 1.8154e-18
   1.96933 -2.32612e-19
   1.97106 7.05275e-19
   1.97269 2.62935e-13
   1.97424 -2.06575e-18
    1.9757 5.90116e-19
   1.97708 3.1149e-18
   1.97838 3.4161e-20
   1.97961 3.10346e-18
   1.98077 4.52811e-18
   1.98187 -3.20085e-18
   1.98291 9.34689e-19
   1.98389 7.61502e-19
   1.98482 5.91771e-18
   1.98569 -7.99154e-18
   1.98652 -1.00862e-11
    1.9873 5.52547e-18
   1.98804 1.6784e-18
   1.98874 -2.31811e-12
    1.9894 7.3308e-12
   1.99002 -3.32899e-14
   1.99061 -1.01859e-17
   1.99116 9.03439e-18
   1.99169 -1.26557e-17
   1.99218 8.38076e-18
   1.99265 1.00439e-17
    1.9931 4.31534e-14
   1.99355 -8.66763e-19
   1.99399 -4.18626e-18
   1.99444 1.35448e-12
   1.99488 6.48417e-18
   1.99533 3.21531e-12
   1.99577 1.74374e-17
   1.99622 -4.28535e-18
   1.99666 -1.12289e-18
   1.99711 1.30431e-17
   1.99755 -6.5722e-18
     1.998 6.66097e-19
   1.99844 -8.11593e-19
   1.99889 4.90721e-18
   1.99933 -3.04298e-18
   1.99978 4.30839e-18
         2 2.92374e-18
