         0 7.5233e-20
 0.0002225 7.91928e-20
 0.0006675 6.11631e-20
 0.0011125 -8.51036e-20
 0.0015575 -4.82822e-20
 0.0020025 -4.47476e-12
 0.0024475 4.40471e-20
 0.0028925 -1.79945e-20
 0.0033375 -3.38472e-20
 0.0037825 -2.6003e-20
 0.0042275 -4.20799e-12
 0.0046725 6.97576e-21
 0.0051175 9.12437e-21
 0.0055625 2.33586e-12
 0.0060075 -5.52992e-20
 0.0064525 1.13527e-19
 0.0068975 2.60943e-12
 0.0073476 -4.75651e-12
0.00781612 -8.75867e-20
0.00831203 -4.74002e-20
0.00883694 4.97196e-20
0.00939255 2.75721e-20
0.00998065 1.74131e-19
 0.0106031 6.15474e-13
  0.011262 -2.8926e-12
 0.0119594 -8.13347e-20
 0.0126977 -2.82395e-20
  0.013479 1.46228e-12
 0.0143061 -4.67809e-12
 0.0151815 5.00109e-20
 0.0161082 1.01319e-19
  0.017089 8.85468e-21
 0.0181271 3.12862e-20
  0.019226 9.06085e-12
 0.0203891 7.2758e-13
 0.0216203 -1.0998e-19
 0.0229234 -7.76461e-20
 0.0243028 1.85977e-20
 0.0257628 1.16915e-19
 0.0273082 -1.67612e-12
  0.028944 2.06297e-21
 0.0306754 -4.17681e-20
 0.0325081 1.03286e-19
 0.0344479 1.18606e-19
 0.0365012 7.2454e-20
 0.0386746 1.00339e-12
  0.040975 -2.61022e-20
   0.04341 1.18567e-19
 0.0459873 6.24724e-12
 0.0487154 7.01466e-12
  0.051603 5.96094e-21
 0.0546595 2.15069e-12
 0.0578947 2.30041e-20
 0.0613191 1.52401e-20
 0.0649437 -6.98374e-20
 0.0687803 -2.05103e-13
 0.0728413 -5.27784e-20
 0.0771397 5.43012e-20
 0.0816895 9.52022e-20
 0.0865054 2.97261e-20
 0.0916029 -3.70548e-20
 0.0969985 3.55761e-20
   0.10271 5.19397e-20
  0.108755 6.14896e-20
  0.115153 -6.62888e-22
  0.121926 6.08457e-13
  0.129095 6.12057e-12
  0.136683 1.0002e-19
  0.144715 -4.06976e-12
  0.153216 -3.28691e-20
  0.162214 -2.33143e-12
  0.171739 -2.79163e-12
  0.181821 -8.37896e-13
  0.192492 -1.02411e-19
  0.203788 -1.81334e-12
  0.215744 3.71986e-13
  0.228399 9.1382e-21
  0.241794 -2.05157e-20
  0.255972 2.63121e-12
   0.27098 -1.79355e-13
  0.286865 8.36652e-21
  0.304824 2.00138e-20
  0.324407 -7.20723e-22
  0.343989 3.74351e-20
  0.363571 6.83862e-20
  0.383154 2.49022e-20
  0.402736 -2.68484e-20
  0.422319 -1.69473e-20
  0.441901 2.61374e-20
  0.461484 -3.52908e-14
  0.481066 1.92163e-21
  0.500648 -1.48803e-20
  0.520231 -1.57155e-20
  0.539813 -9.20653e-13
  0.559396 2.50755e-20
  0.578978 3.97652e-20
   0.59856 -2.29388e-20
  0.618143 1.56106e-20
  0.637725 -4.23657e-12
  0.657308 4.67173e-20
   0.67689 3.34579e-20
  0.696473 -8.27611e-21
  0.716055 1.58168e-20
  0.735637 2.11749e-20
   0.75522 -4.45532e-20
  0.774802 -2.08729e-20
  0.794385 -1.20081e-20
  0.813967 -1.65084e-21
  0.833549 2.22928e-20
  0.853132 1.2645e-20
  0.872714 4.54902e-21
  0.892297 -1.57858e-12
  0.911879 -1.67119e-20
  0.931462 -1.89288e-20
  0.951044 -8.24739e-22
  0.970626 -3.00476e-20
  0.990209 -3.65827e-21
   1.00979 -2.53687e-20
   1.02937 -2.44172e-21
   1.04896 1.74052e-20
   1.06854 -1.25788e-20
   1.08812 1.31045e-20
    1.1077 5.45505e-21
   1.12729 -6.84577e-21
   1.14687 -1.28653e-20
   1.16645 1.20738e-20
   1.18603 -3.66659e-21
   1.20562 1.03218e-20
    1.2252 2.30088e-12
   1.24478 2.64807e-12
   1.26436 -4.90372e-21
   1.28395 1.8314e-12
   1.30353 3.83625e-20
   1.32311 -8.79606e-21
   1.34269 4.5986e-21
   1.36228 -1.0206e-12
   1.38186 1.1402e-20
   1.40144 2.01323e-21
   1.42102 -4.44579e-12
   1.44061 -1.34954e-20
   1.46019 9.64478e-21
   1.47977 -9.21819e-21
   1.49935 -2.51533e-12
   1.51894 1.34909e-20
   1.53852 1.08829e-20
    1.5581 -1.16468e-20
   1.57768 -5.15446e-20
   1.59727 2.19767e-20
   1.61685 2.35421e-20
   1.63643  -3.58e-20
   1.65601 1.7336e-20
    1.6756 -1.95625e-20
   1.69518 -4.3857e-20
   1.71314 -3.32819e-20
   1.72902 2.02505e-20
   1.74403 1.11493e-12
   1.75821 -6.24009e-21
    1.7716 -1.25068e-20
   1.78426 4.91959e-20
   1.79621 4.90088e-20
   1.80751 -4.45577e-12
   1.81818 -5.6481e-20
   1.82826  3.879e-21
   1.83779 3.58708e-20
   1.84679 -3.4447e-12
   1.85529 5.41434e-20
   1.86332 -6.86782e-20
   1.87091 5.4513e-20
   1.87808 -1.45346e-19
   1.88485 2.30184e-12
   1.89125 3.77606e-20
   1.89729 1.29497e-19
     1.903 -8.08782e-20
    1.9084 4.23733e-21
    1.9135 -1.57404e-20
   1.91831 -2.02504e-12
   1.92286 -5.5884e-12
   1.92716 -6.23958e-20
   1.93122 1.8546e-19
   1.93506 -6.47003e-20
   1.93868 2.68584e-13
   1.94211 5.56447e-13
   1.94534 4.44458e-20
    1.9484 1.01617e-19
   1.95129 3.02321e-12
   1.95401 -1.80915e-12
   1.95659 1.1775e-19
   1.95903 -7.34932e-20
   1.96133 1.58197e-19
    1.9635 6.20261e-20
   1.96555 1.43447e-12
   1.96749 1.05721e-19
   1.96933 -4.16375e-13
   1.97106 5.91688e-20
   1.97269 1.55878e-14
   1.97424 -3.09864e-19
    1.9757 1.69284e-19
   1.97708 4.83531e-20
   1.97838 6.28642e-12
   1.97961 1.12339e-19
   1.98077 4.93611e-19
   1.98187 2.0509e-20
   1.98291 1.45599e-19
   1.98389 -1.31203e-13
   1.98482 9.88966e-20
   1.98569 -5.16886e-13
   1.98652 -3.40044e-20
    1.9873 9.39244e-21
   1.98804 2.0184e-19
   1.98874 -1.02687e-19
    1.9894 -4.37026e-20
   1.99002 1.30317e-19
   1.99061 3.87262e-19
   1.99116 1.29226e-19
   1.99169 1.11948e-19
   1.99218 1.11771e-11
   1.99265 3.40426e-19
    1.9931 -3.43738e-19
   1.99355 4.29814e-19
   1.99399 -5.67317e-19
   1.99444 -3.03754e-19
   1.99488 5.06359e-19
   1.99533 7.01756e-19
   1.99577 -8.5411e-13
   1.99622 7.84645e-20
   1.99666 -2.76022e-19
   1.99711 -5.82745e-19
   1.99755 7.59413e-19
     1.998 -2.4172e-19
   1.99844 -2.90844e-19
   1.99889 3.89351e-19
   1.99933 2.52222e-19
   1.99978 -7.77838e-19
         2 -8.98984e-19
