         0    -61.701
 0.0002225    -61.701
 0.0006675   -131.532
 0.0011125   -274.627
 0.0015575   -490.856
 0.0020025   -774.307
 0.0024475   -1112.75
 0.0028925   -1488.96
 0.0033375   -1882.17
 0.0037825   -2271.08
 0.0042275    -2635.7
 0.0046725   -2959.91
 0.0051175   -3231.89
 0.0055625   -3445.18
 0.0060075   -3597.55
 0.0064525   -3691.08
 0.0068975    -3731.5
 0.0073476   -3716.77
0.00781612   -3654.09
0.00831203   -3556.71
0.00883694    -3420.6
0.00939255   -3251.46
0.00998065   -3055.25
 0.0106031   -2839.55
  0.011262   -2611.27
 0.0119594   -2377.86
 0.0126977   -2145.33
  0.013479   -1919.47
 0.0143061   -1704.23
 0.0151815   -1503.06
 0.0161082   -1317.67
  0.017089   -1149.35
 0.0181271   -998.068
  0.019226   -863.614
 0.0203891    -744.93
 0.0216203   -641.014
 0.0229234    -550.38
 0.0243028   -471.752
 0.0257628   -403.638
 0.0273082   -344.868
  0.028944   -294.243
 0.0306754   -250.813
 0.0325081   -213.563
 0.0344479    -181.69
 0.0365012   -154.414
 0.0386746   -131.106
  0.040975   -111.174
   0.04341   -94.1848
 0.0459873   -79.7218
 0.0487154   -67.4925
  0.051603    -57.231
 0.0546595   -48.6318
 0.0578947   -41.2431
 0.0613191   -34.9336
 0.0649437    -29.683
 0.0687803    -25.419
 0.0728413   -21.9082
 0.0771397   -18.8756
 0.0816895   -16.2436
 0.0865054    -14.126
 0.0916029   -12.3774
 0.0969985   -10.8102
   0.10271    -9.4914
  0.108755   -8.48284
  0.115153   -7.58876
  0.121926   -6.76935
  0.129095   -5.97436
  0.136683   -5.32369
  0.144715    -4.5901
  0.153216   -4.43403
  0.162214   -3.86036
  0.171739   -3.95661
  0.181821   -3.01316
  0.192492   -3.35198
  0.203788   -1.62119
  0.215744   -3.46328
  0.228399  -0.220208
  0.241794    -4.5137
  0.255972    2.06863
   0.27098   -5.57423
  0.286865    1.72534
  0.304824  -0.938244
  0.324407   -3.21339
  0.343989 -0.0238986
  0.363571   -2.50716
  0.383154 -0.0980939
  0.402736   -1.62444
  0.422319  -0.383099
  0.441901    -1.0318
  0.461484  -0.303061
  0.481066  -0.848333
  0.500648  -0.398518
  0.520231  -0.669475
  0.539813  -0.397858
  0.559396  -0.648562
  0.578978  -0.442795
   0.59856  -0.580707
  0.618143  -0.462235
  0.637725  -0.604461
  0.657308  -0.590572
   0.67689  -0.584272
  0.696473  -0.454043
  0.716055   -0.58464
  0.735637  -0.605803
   0.75522  -0.658386
  0.774802  -0.568175
  0.794385  -0.693536
  0.813967  -0.726002
  0.833549  -0.779498
  0.853132  -0.672097
  0.872714  -0.721905
  0.892297  -0.763297
  0.911879  -0.914741
  0.931462  -0.956618
  0.951044  -0.925592
  0.970626  -0.911373
  0.990209  -0.972461
   1.00979  -0.980132
   1.02937  -0.922953
   1.04896  -0.985255
   1.06854  -0.991388
   1.08812   -0.92924
    1.1077  -0.903628
   1.12729  -0.978338
   1.14687  -0.921118
   1.16645  -0.943443
   1.18603  -0.828121
   1.20562  -0.835729
    1.2252  -0.761161
   1.24478  -0.637519
   1.26436  -0.731951
   1.28395  -0.719271
   1.30353  -0.627117
   1.32311  -0.590388
   1.34269  -0.469047
   1.36228  -0.728507
   1.38186  -0.577451
   1.40144  -0.650485
   1.42102  -0.620649
   1.44061  -0.893979
   1.46019   -0.55018
   1.47977  -0.805549
   1.49935  -0.676481
   1.51894  -0.968142
   1.53852  -0.476569
    1.5581   -1.37467
   1.57768  -0.158145
   1.59727     -1.604
   1.61685 -0.0711882
   1.63643   -2.52497
   1.65601    0.65884
    1.6756   -3.22482
   1.69518  -0.603674
   1.71314    1.96314
   1.72902   -5.71501
   1.74403    2.52466
   1.75821   -4.10279
    1.7716 -0.00909275
   1.78426   -3.31675
   1.79621   -1.17456
   1.80751   -3.06974
   1.81818   -2.48029
   1.82826   -3.52123
   1.83779   -3.68071
   1.84679   -4.26741
   1.85529   -4.45469
   1.86332   -5.02078
   1.87091   -5.73204
   1.87808   -6.50803
   1.88485   -7.34532
   1.89125   -8.25958
   1.89729   -9.38629
     1.903   -10.8177
    1.9084   -12.4962
    1.9135   -14.2888
   1.91831   -16.3247
   1.92286   -18.9397
   1.92716   -22.1434
   1.93122    -25.813
   1.93506   -29.9918
   1.93868   -35.0637
   1.94211   -41.2709
   1.94534   -48.5995
    1.9484   -57.2778
   1.95129   -67.6898
   1.95401   -80.0342
   1.95659    -94.493
   1.95903   -111.433
   1.96133    -131.36
    1.9635   -154.727
   1.96555   -182.105
   1.96749   -214.085
   1.96933   -251.376
   1.97106   -294.722
   1.97269   -345.115
   1.97424   -403.555
    1.9757   -471.312
   1.97708   -549.563
   1.97838   -639.743
   1.97961   -743.059
   1.98077   -860.935
   1.98187   -994.313
   1.98291   -1144.18
   1.98389   -1310.66
   1.98482   -1493.68
   1.98569   -1691.86
   1.98652   -1903.38
    1.9873   -2124.74
   1.98804   -2351.92
   1.98874   -2579.16
    1.9894   -2800.49
   1.99002   -3008.62
   1.99061   -3196.82
   1.99116   -3357.81
   1.99169   -3485.93
   1.99218   -3575.83
   1.99265   -3631.77
    1.9931   -3640.66
   1.99355   -3595.89
   1.99399   -3499.75
   1.99444   -3346.85
   1.99488   -3135.49
   1.99533   -2868.11
   1.99577   -2551.16
   1.99622   -2196.19
   1.99666    -1818.8
   1.99711   -1438.19
   1.99755   -1074.69
     1.998   -748.111
   1.99844   -474.829
   1.99889   -266.451
   1.99933   -128.568
   1.99978   -61.2793
         2   -61.2793
