         0  0.0019092
 0.0002225  0.0019092
 0.0006675  0.0155636
 0.0011125  0.0400337
 0.0015575  0.0693102
 0.0020025  0.0967384
 0.0024475    0.11562
 0.0028925   0.120195
 0.0033375   0.106649
 0.0037825  0.0736936
 0.0042275  0.0224784
 0.0046725 -0.0441951
 0.0051175  -0.122621
 0.0055625  -0.208955
 0.0060075  -0.299263
 0.0064525  -0.389704
 0.0068975  -0.477638
 0.0073476  -0.557876
0.00781612  -0.623501
0.00831203  -0.675087
0.00883694  -0.703983
0.00939255  -0.705781
0.00998065  -0.679444
 0.0106031  -0.629147
  0.011262  -0.563513
 0.0119594  -0.493985
 0.0126977  -0.430488
  0.013479  -0.377895
 0.0143061  -0.333519
 0.0151815  -0.288948
 0.0161082  -0.234763
  0.017089  -0.166488
 0.0181271 -0.0859954
  0.019226 0.00104347
 0.0203891  0.0831973
 0.0216203   0.137502
 0.0229234   0.141524
 0.0243028    0.10524
 0.0257628  0.0706255
 0.0273082  0.0692203
  0.028944  0.0952352
 0.0306754    0.11703
 0.0325081  0.0911165
 0.0344479 -0.0202538
 0.0365012  -0.210299
 0.0386746  -0.396648
  0.040975  -0.479737
   0.04341  -0.430225
 0.0459873  -0.285921
 0.0487154  -0.174297
  0.051603   -0.14919
 0.0546595 -0.0854001
 0.0578947 -0.00740555
 0.0613191 -0.0240662
 0.0649437  -0.107265
 0.0687803  -0.121023
 0.0728413 -0.0734509
 0.0771397 -0.0468373
 0.0816895  0.0175075
 0.0865054   0.115428
 0.0916029   0.138814
 0.0969985    0.24889
   0.10271   0.307538
  0.108755   0.248231
  0.115153   0.165723
  0.121926   0.110209
  0.129095  0.0587742
  0.136683 -0.0348012
  0.144715  -0.166669
  0.153216  -0.120531
  0.162214  0.0196045
  0.171739 -0.0797262
  0.181821  -0.162489
  0.192492  0.0480703
  0.203788 -0.0171687
  0.215744   0.167313
  0.228399   0.197277
  0.241794   0.016151
  0.255972  0.0368255
   0.27098  -0.140053
  0.286865   0.102408
  0.304824  -0.183952
  0.324407  -0.124262
  0.343989  0.0250251
  0.363571 -0.0842015
  0.383154    0.14222
  0.402736 -0.0481087
  0.422319  0.0511298
  0.441901  0.0359251
  0.461484  -0.090144
  0.481066 -0.0502294
  0.500648 -0.0599924
  0.520231 -0.0255733
  0.539813 -0.0218628
  0.559396  0.0598439
  0.578978 -0.0302586
   0.59856  0.0728972
  0.618143  0.0831122
  0.637725  0.0275683
  0.657308 -0.0958516
   0.67689  -0.116026
  0.696473   0.042173
  0.716055 -0.0255291
  0.735637  -0.014913
   0.75522 0.00519766
  0.774802  0.0579777
  0.794385   0.061436
  0.813967  0.0651279
  0.833549 -0.000404975
  0.853132  0.0594116
  0.872714   0.139501
  0.892297   0.137572
  0.911879  0.0375736
  0.931462 -0.0544881
  0.951044 -0.00169446
  0.970626 0.00868622
  0.990209 -0.0311482
   1.00979  0.0206082
   1.02937  0.0608534
   1.04896  0.0607626
   1.06854 -0.0107728
   1.08812  -0.111964
    1.1077  -0.113355
   1.12729  -0.134175
   1.14687 -0.0566559
   1.16645 -0.0541787
   1.18603 -0.0709057
   1.20562  -0.096976
    1.2252 0.00865935
   1.24478 -0.0214687
   1.26436 -0.0529763
   1.28395  0.0118798
   1.30353  0.0630347
   1.32311  0.0816054
   1.34269 -0.0451901
   1.36228 -0.0195376
   1.38186  0.0716679
   1.40144 -0.0700653
   1.42102  -0.159727
   1.44061  0.0159196
   1.46019 -0.0167501
   1.47977  0.0584707
   1.49935   0.070324
   1.51894 -0.0862241
   1.53852 -0.0361515
    1.5581  0.0258313
   1.57768 0.00288904
   1.59727 -0.0540209
   1.61685   0.105902
   1.63643  -0.187657
   1.65601  -0.104813
    1.6756   0.121643
   1.69518   0.179317
   1.71314 -0.0754093
   1.72902  -0.051276
   1.74403   0.061981
   1.75821   0.282418
    1.7716   0.134035
   1.78426  -0.033959
   1.79621  -0.120196
   1.80751  -0.104244
   1.81818   0.142087
   1.82826   0.181206
   1.83779   0.067688
   1.84679  0.0818672
   1.85529 0.00259705
   1.86332 -0.0290042
   1.87091 -0.0191688
   1.87808   0.165841
   1.88485   0.192408
   1.89125   0.141692
   1.89729  0.0993457
     1.903  0.0420923
    1.9084  0.0568188
    1.9135  0.0348787
   1.91831 -0.00588916
   1.92286 -0.0249136
   1.92716 0.00647534
   1.93122  0.0480496
   1.93506   0.081807
   1.93868   0.101512
   1.94211  0.0864224
   1.94534  0.0987715
    1.9484   0.147366
   1.95129   0.177742
   1.95401   0.160535
   1.95659   0.164813
   1.95903   0.224738
   1.96133   0.322271
    1.9635   0.445713
   1.96555   0.541665
   1.96749   0.549917
   1.96933   0.487327
   1.97106   0.405526
   1.97269   0.331534
   1.97424   0.279228
    1.9757   0.261872
   1.97708   0.276861
   1.97838   0.313792
   1.97961   0.367475
   1.98077   0.440513
   1.98187   0.540909
   1.98291   0.680687
   1.98389   0.867618
   1.98482    1.09954
   1.98569    1.36213
   1.98652    1.63513
    1.9873     1.8972
   1.98804    2.13233
   1.98874     2.3303
    1.9894     2.4885
   1.99002    2.60835
   1.99061    2.69517
   1.99116     2.7542
   1.99169    2.79124
   1.99218    2.80981
   1.99265    2.81637
    1.9931    2.80777
   1.99355    2.77577
   1.99399    2.71936
   1.99444     2.6343
   1.99488    2.51429
   1.99533    2.35437
   1.99577    2.15138
   1.99622    1.90674
   1.99666    1.62667
   1.99711    1.32343
   1.99755    1.01352
     1.998   0.716626
   1.99844     0.4525
   1.99889   0.239176
   1.99933  0.0904025
   1.99978  0.0139133
         2  0.0139133
