         0   0.512464
 0.0002225   0.512464
 0.0006675  -0.512465
 0.0011125   0.512466
 0.0015575  -0.512469
 0.0020025   0.512472
 0.0024475  -0.512476
 0.0028925    0.51248
 0.0033375  -0.512484
 0.0037825   0.512488
 0.0042275  -0.512492
 0.0046725   0.512496
 0.0051175  -0.512499
 0.0055625     0.5125
 0.0060075  -0.512501
 0.0064525     0.5125
 0.0068975  -0.506752
 0.0073476   0.471055
0.00781612  -0.404386
0.00831203    0.34099
0.00883694  -0.287531
0.00939255   0.242452
0.00998065  -0.204438
 0.0106031   0.172389
  0.011262  -0.145363
 0.0119594   0.122567
 0.0126977  -0.103343
  0.013479  0.0871323
 0.0143061 -0.0734621
 0.0151815  0.0619344
 0.0161082 -0.0522132
  0.017089  0.0440157
 0.0181271  -0.037103
  0.019226  0.0312738
 0.0203891 -0.0263586
 0.0216203  0.0222139
 0.0229234 -0.0187192
 0.0243028  0.0157728
 0.0257628 -0.0132886
 0.0273082  0.0111943
  0.028944 -0.00942894
 0.0306754 0.00794078
 0.0325081 -0.00668662
 0.0344479 0.00562948
 0.0365012 -0.00473863
 0.0386746 0.00398838
  0.040975 -0.00335622
   0.04341 0.00282346
 0.0459873 -0.00237501
 0.0487154 0.00199724
  0.051603 -0.00167886
 0.0546595 0.00141102
 0.0578947 -0.00118556
 0.0613191 0.000995831
 0.0649437 -0.000836352
 0.0687803 0.000702156
 0.0728413 -0.000589238
 0.0771397 0.000494248
 0.0816895 -0.000414518
 0.0865054 0.000347633
 0.0916029 -0.000291377
 0.0969985 0.000244093
   0.10271 -0.000204492
  0.108755 0.00017137
  0.115153 -0.000143559
  0.121926 0.000120175
  0.129095 -0.000100543
  0.136683 8.40059e-05
  0.144715 -7.01323e-05
  0.153216 5.86283e-05
  0.162214 -4.90304e-05
  0.171739 4.09405e-05
  0.181821 -3.41624e-05
  0.192492 2.8465e-05
  0.203788 -2.36844e-05
  0.215744 1.9704e-05
  0.228399 -1.63043e-05
  0.241794 1.3366e-05
  0.255972 -1.09031e-05
   0.27098 8.91878e-06
  0.286865 -6.97239e-06
  0.304824 4.65566e-06
  0.324407 -4.1643e-06
  0.343989 4.0496e-06
  0.363571 -3.95569e-06
  0.383154 3.91248e-06
  0.402736 -3.88651e-06
  0.422319 3.85584e-06
  0.441901 -3.80882e-06
  0.461484 3.74509e-06
  0.481066 -3.66524e-06
  0.500648 3.55266e-06
  0.520231 -3.43962e-06
  0.539813 3.36861e-06
  0.559396 -3.30968e-06
  0.578978 3.23669e-06
   0.59856 -3.16169e-06
  0.618143 3.08129e-06
  0.637725 -2.99206e-06
  0.657308 2.90339e-06
   0.67689 -2.81102e-06
  0.696473 2.7153e-06
  0.716055 -2.62509e-06
  0.735637 2.54197e-06
   0.75522 -2.47057e-06
  0.774802 2.40569e-06
  0.794385 -2.33556e-06
  0.813967 2.26638e-06
  0.833549 -2.20651e-06
  0.853132 2.14908e-06
  0.872714 -2.08856e-06
  0.892297 2.02654e-06
  0.911879 -1.96327e-06
  0.931462 1.90134e-06
  0.951044 -1.84157e-06
  0.970626 1.78149e-06
  0.990209 -1.72397e-06
   1.00979 1.67137e-06
   1.02937 -1.62097e-06
   1.04896 1.5689e-06
   1.06854 -1.50868e-06
   1.08812 1.44265e-06
    1.1077 -1.38152e-06
   1.12729 1.32256e-06
   1.14687 -1.25323e-06
   1.16645 1.17312e-06
   1.18603 -1.1001e-06
   1.20562 1.04051e-06
    1.2252 -9.88777e-07
   1.24478 9.63112e-07
   1.26436 -9.69366e-07
   1.28395 9.65659e-07
   1.30353 -9.34103e-07
   1.32311 9.08168e-07
   1.34269 -8.98518e-07
   1.36228 8.95043e-07
   1.38186 -9.02003e-07
   1.40144 9.00995e-07
   1.42102 -8.8233e-07
   1.44061 8.88779e-07
   1.46019 -9.165e-07
   1.47977 9.21389e-07
   1.49935 -9.28374e-07
   1.51894 9.55651e-07
   1.53852 -9.85756e-07
    1.5581 1.04555e-06
   1.57768 -1.15428e-06
   1.59727 1.28944e-06
   1.61685 -1.4369e-06
   1.63643 1.6034e-06
   1.65601 -1.78338e-06
    1.6756 1.94106e-06
   1.69518 -2.26383e-06
   1.71314 3.51174e-06
   1.72902 -4.67426e-06
   1.74403 5.97677e-06
   1.75821 -7.58386e-06
    1.7716 9.52951e-06
   1.78426 -1.19092e-05
   1.79621 1.47741e-05
   1.80751 -1.82637e-05
   1.81818 2.25912e-05
   1.82826 -2.79004e-05
   1.83779 3.43077e-05
   1.84679 -4.19796e-05
   1.85529 5.11478e-05
   1.86332 -6.2249e-05
   1.87091 7.57684e-05
   1.87808 -9.20448e-05
   1.88485 0.000111639
   1.89125 -0.000135217
   1.89729 0.000163344
     1.903 -0.000197005
    1.9084 0.000237549
    1.9135 -0.000286199
   1.91831 0.00034438
   1.92286 -0.000414187
   1.92716 0.000497908
   1.93122 -0.000597839
   1.93506 0.000717147
   1.93868 -0.000859974
   1.94211 0.00103058
   1.94534 -0.00123383
    1.9484 0.00147631
   1.95129 -0.00176599
   1.95401 0.00211165
   1.95659 -0.00252374
   1.95903 0.00301493
   1.96133 -0.00360022
    1.9635 0.00429762
   1.96555 -0.00512812
   1.96749  0.0061168
   1.96933 -0.0072939
   1.97106 0.00869498
   1.97269  -0.010362
   1.97424  0.0123452
    1.9757 -0.0147041
   1.97708  0.0175094
   1.97838 -0.0208449
   1.97961  0.0248101
   1.98077 -0.0295229
   1.98187  0.0351235
   1.98291  -0.041778
   1.98389  0.0496834
   1.98482 -0.0590732
   1.98569  0.0702244
   1.98652 -0.0834656
    1.9873  0.0991859
   1.98804  -0.117847
   1.98874   0.139996
    1.9894  -0.166281
   1.99002    0.19747
   1.99061  -0.234474
   1.99116   0.278372
   1.99169  -0.330443
   1.99218   0.392202
   1.99265   -0.45718
    1.9931   0.492101
   1.99355  -0.497946
   1.99399   0.498186
   1.99444  -0.498398
   1.99488   0.498583
   1.99533  -0.498743
   1.99577   0.498882
   1.99622  -0.499002
   1.99666   0.499103
   1.99711  -0.499188
   1.99755   0.499258
     1.998  -0.499315
   1.99844   0.499359
   1.99889  -0.499391
   1.99933   0.499412
   1.99978  -0.499423
         2  -0.499423
