         0          0
 0.0002225 -1.94039e-08
 0.0006675 1.94247e-08
 0.0011125 -1.94315e-08
 0.0015575 1.94711e-08
 0.0020025 -1.94926e-08
 0.0024475 1.95423e-08
 0.0028925 -1.95699e-08
 0.0033375 1.96261e-08
 0.0037825 -1.96757e-08
 0.0042275 1.9743e-08
 0.0046725 -1.98528e-08
 0.0051175 1.99838e-08
 0.0055625 -2.02191e-08
 0.0060075 2.05146e-08
 0.0064525 -2.09465e-08
 0.0068975 2.1523e-08
 0.0073476 -2.16636e-08
0.00781612 2.12965e-08
0.00831203 -2.08376e-08
0.00883694 2.03567e-08
0.00939255 -1.96819e-08
0.00998065 1.84843e-08
 0.0106031 -1.70445e-08
  0.011262 1.47297e-08
 0.0119594 -1.17855e-08
 0.0126977 7.84471e-09
  0.013479 -3.00531e-09
 0.0143061 -2.63039e-09
 0.0151815 9.67517e-09
 0.0161082 -1.70834e-08
  0.017089 2.59175e-08
 0.0181271 -3.54466e-08
  0.019226 4.50608e-08
 0.0203891 -5.65542e-08
 0.0216203 6.71019e-08
 0.0229234 -7.86919e-08
 0.0243028 9.06257e-08
 0.0257628 -1.01611e-07
 0.0273082 1.14003e-07
  0.028944 -1.25228e-07
 0.0306754 1.36572e-07
 0.0325081 -1.47703e-07
 0.0344479 1.57664e-07
 0.0365012 -1.67687e-07
 0.0386746 1.77565e-07
  0.040975 -1.84916e-07
   0.04341 1.94232e-07
 0.0459873 -2.04648e-07
 0.0487154 2.08573e-07
  0.051603 -2.14745e-07
 0.0546595 2.23705e-07
 0.0578947 -2.24964e-07
 0.0613191 2.27184e-07
 0.0649437 -2.34357e-07
 0.0687803 2.36396e-07
 0.0728413 -2.38726e-07
 0.0771397 2.46094e-07
 0.0816895 -2.52393e-07
 0.0865054 2.54259e-07
 0.0916029 -2.51867e-07
 0.0969985 2.53071e-07
   0.10271 -2.56933e-07
  0.108755 2.52326e-07
  0.115153 -2.44503e-07
  0.121926 2.40653e-07
  0.129095 -2.3935e-07
  0.136683 2.40951e-07
  0.144715 -2.43057e-07
  0.153216 2.41777e-07
  0.162214 -2.36283e-07
  0.171739 2.3135e-07
  0.181821 -2.29717e-07
  0.192492 2.29912e-07
  0.203788 -2.2945e-07
  0.215744 2.25925e-07
  0.228399 -2.21569e-07
  0.241794 2.15069e-07
  0.255972 -2.01499e-07
   0.27098 1.81647e-07
  0.286865 -1.59334e-07
  0.304824 1.21567e-07
  0.324407 -1.13211e-07
  0.343989 1.0677e-07
  0.363571 -9.78831e-08
  0.383154 8.71541e-08
  0.402736 -7.67226e-08
  0.422319 6.80102e-08
  0.441901 -6.03547e-08
  0.461484 5.2878e-08
  0.481066 -4.47267e-08
  0.500648 3.34955e-08
  0.520231 -2.07148e-08
  0.539813 8.15292e-09
  0.559396 4.42499e-09
  0.578978 -1.57848e-08
   0.59856 2.63983e-08
  0.618143 -3.78852e-08
  0.637725 4.86385e-08
  0.657308 -5.80659e-08
   0.67689 6.73482e-08
  0.696473 -7.68399e-08
  0.716055 8.65878e-08
  0.735637 -9.68269e-08
   0.75522 1.06714e-07
  0.774802 -1.16106e-07
  0.794385 1.24796e-07
  0.813967 -1.32686e-07
  0.833549 1.40689e-07
  0.853132 -1.49018e-07
  0.872714 1.57027e-07
  0.892297 -1.64769e-07
  0.911879 1.72342e-07
  0.931462 -1.80583e-07
  0.951044 1.89206e-07
  0.970626 -1.97383e-07
  0.990209 2.04755e-07
   1.00979 -2.11863e-07
   1.02937 2.18749e-07
   1.04896 -2.25266e-07
   1.06854 2.31225e-07
   1.08812 -2.36731e-07
    1.1077 2.41711e-07
   1.12729 -2.46602e-07
   1.14687 2.51623e-07
   1.16645 -2.56663e-07
   1.18603 2.60527e-07
   1.20562 -2.63484e-07
    1.2252 2.66312e-07
   1.24478 -2.69107e-07
   1.26436 2.72322e-07
   1.28395 -2.76721e-07
   1.30353 2.8115e-07
   1.32311 -2.85376e-07
   1.34269 2.89301e-07
   1.36228 -2.93795e-07
   1.38186 2.98938e-07
   1.40144 -3.02909e-07
   1.42102 3.04958e-07
   1.44061 -3.06204e-07
   1.46019 3.08835e-07
   1.47977 -3.13251e-07
   1.49935 3.16482e-07
   1.51894 -3.19294e-07
   1.53852 3.21774e-07
    1.5581 -3.22612e-07
   1.57768 3.23438e-07
   1.59727 -3.24784e-07
   1.61685 3.2372e-07
   1.63643 -3.20836e-07
   1.65601 3.17825e-07
    1.6756 -3.13637e-07
   1.69518 3.07332e-07
   1.71314 -3.60186e-07
   1.72902 3.73615e-07
   1.74403 -3.89446e-07
   1.75821 4.04401e-07
    1.7716 -4.14757e-07
   1.78426 4.21648e-07
   1.79621 -4.27639e-07
   1.80751 4.28094e-07
   1.81818 -4.21372e-07
   1.82826 4.1434e-07
   1.83779 -4.11913e-07
   1.84679 4.13726e-07
   1.85529 -4.13666e-07
   1.86332 4.08043e-07
   1.87091 -3.99969e-07
   1.87808 3.92703e-07
   1.88485 -3.85458e-07
   1.89125 3.77397e-07
   1.89729 -3.70735e-07
     1.903 3.65081e-07
    1.9084 -3.64512e-07
    1.9135 3.62481e-07
   1.91831 -3.52284e-07
   1.92286 3.38875e-07
   1.92716 -3.25466e-07
   1.93122 3.15638e-07
   1.93506 -3.06459e-07
   1.93868 2.95838e-07
   1.94211 -2.84346e-07
   1.94534 2.72144e-07
    1.9484 -2.59596e-07
   1.95129 2.45142e-07
   1.95401 -2.31925e-07
   1.95659 2.17536e-07
   1.95903 -2.02803e-07
   1.96133 1.88926e-07
    1.9635 -1.73808e-07
   1.96555 1.59551e-07
   1.96749 -1.46049e-07
   1.96933 1.31123e-07
   1.97106 -1.1618e-07
   1.97269 1.00917e-07
   1.97424 -8.58641e-08
    1.9757 7.15429e-08
   1.97708 -5.65452e-08
   1.97838 4.24988e-08
   1.97961 -2.90288e-08
   1.98077 1.56831e-08
   1.98187 -3.77933e-09
   1.98291 -7.51735e-09
   1.98389 1.77879e-08
   1.98482 -2.66119e-08
   1.98569 3.46313e-08
   1.98652 -4.07136e-08
    1.9873 4.60163e-08
   1.98804 -4.96714e-08
   1.98874 5.18153e-08
    1.9894 -5.33527e-08
   1.99002 5.28132e-08
   1.99061 -5.22767e-08
   1.99116 5.00482e-08
   1.99169 -4.77377e-08
   1.99218 4.47254e-08
   1.99265 -4.14133e-08
    1.9931 3.68037e-08
   1.99355 -3.13133e-08
   1.99399 2.63115e-08
   1.99444 -2.13998e-08
   1.99488 1.70957e-08
   1.99533 -1.29682e-08
   1.99577 9.39829e-09
   1.99622 -6.10101e-09
   1.99666 3.24707e-09
   1.99711 -7.57296e-10
   1.99755 -1.38571e-09
     1.998 3.12537e-09
   1.99844 -4.54996e-09
   1.99889 5.58459e-09
   1.99933 -6.29217e-09
   1.99978 6.63321e-09
         2          0
