         0          0
 0.0002225 -1.96405e-05
 0.0006675 -5.89823e-05
 0.0011125 -9.85009e-05
 0.0015575 -0.000138298
 0.0020025 -0.000178445
 0.0024475 -0.00021896
 0.0028925 -0.000259791
 0.0033375 -0.000300807
 0.0037825 -0.000341798
 0.0042275 -0.000382503
 0.0046725 -0.00042263
 0.0051175 -0.000461901
 0.0055625 -0.000500078
 0.0060075 -0.000536997
 0.0064525 -0.000572573
 0.0068975 -0.000606804
 0.0073476 -0.000640119
0.00781612 -0.000673499
0.00831203 -0.000707491
0.00883694 -0.000742062
0.00939255 -0.000777127
0.00998065 -0.000812556
 0.0106031 -0.000848218
  0.011262 -0.000884073
 0.0119594 -0.000920279
 0.0126977 -0.000957232
  0.013479 -0.000995463
 0.0143061 -0.00103536
 0.0151815 -0.00107679
 0.0161082 -0.00111869
  0.017089 -0.00115882
 0.0181271 -0.0011938
  0.019226 -0.0012196
 0.0203891 -0.0012326
 0.0216203 -0.0012307
 0.0229234 -0.00121404
 0.0243028 -0.00118525
 0.0257628 -0.00114859
 0.0273082 -0.00110902
  0.028944 -0.0010719
 0.0306754 -0.00104255
 0.0325081 -0.00102562
 0.0344479 -0.00102383
 0.0365012 -0.00103459
 0.0386746 -0.00105331
  0.040975 -0.0010835
   0.04341 -0.00112859
 0.0459873 -0.00117689
 0.0487154 -0.00121654
  0.051603 -0.00124316
 0.0546595 -0.00125886
 0.0578947 -0.00126345
 0.0613191 -0.00124772
 0.0649437 -0.00121088
 0.0687803 -0.00116142
 0.0728413 -0.00112637
 0.0771397 -0.00108679
 0.0816895 -0.00100343
 0.0865054 -0.000888856
 0.0916029 -0.000730913
 0.0969985 -0.000527508
   0.10271 -0.000308282
  0.108755 -0.000148614
  0.115153 -0.000148247
  0.121926 -0.000293311
  0.129095 -0.000443492
  0.136683 -0.000444375
  0.144715 -0.000333048
  0.153216 -0.000205064
  0.162214 -0.000390542
  0.171739 -0.000729715
  0.181821 -0.00100337
  0.192492 -0.00128612
  0.203788 -0.00140489
  0.215744 -0.00108927
  0.228399 -0.000310056
  0.241794 0.000296695
  0.255972 -8.10476e-06
   0.27098 -0.00033273
  0.286865 -0.000291836
  0.304824 0.00023463
  0.324407 0.00088517
  0.343989 0.000146868
  0.363571 -4.03234e-05
  0.383154 0.000281652
  0.402736 0.00061917
  0.422319 0.000565038
  0.441901 -8.76852e-06
  0.461484 -5.67747e-06
  0.481066 0.000641833
  0.500648 0.000896384
  0.520231 0.00105904
  0.539813 0.00174061
  0.559396 0.00260883
  0.578978 0.00322755
   0.59856 0.00337166
  0.618143 0.00375216
  0.637725 0.00361576
  0.657308 0.00285843
   0.67689 0.00205891
  0.696473 0.00130275
  0.716055 0.000983315
  0.735637 0.000809112
   0.75522 0.000639048
  0.774802 0.00037085
  0.794385 9.14972e-05
  0.813967 -1.93398e-05
  0.833549 5.92676e-05
  0.853132 9.5713e-05
  0.872714 0.000117875
  0.892297 0.000207997
  0.911879 0.000362574
  0.931462 0.000412972
  0.951044 0.000311011
  0.970626 0.000312352
  0.990209 0.000513962
   1.00979 0.000648439
   1.02937 0.000445736
   1.04896 -3.09794e-05
   1.06854 -0.000166693
   1.08812 1.2361e-05
    1.1077 8.39992e-05
   1.12729 -2.81362e-05
   1.14687 -0.000253622
   1.16645 -0.000326205
   1.18603 0.000114745
   1.20562 0.000502317
    1.2252 0.000446351
   1.24478 0.000638186
   1.26436 0.00111222
   1.28395 0.00164182
   1.30353 0.00202568
   1.32311 0.00231399
   1.34269 0.00252327
   1.36228 0.00273364
   1.38186 0.00296083
   1.40144 0.00259548
   1.42102 0.00232223
   1.44061 0.00229451
   1.46019  0.0015988
   1.47977 0.00108728
   1.49935 0.000339098
   1.51894 -0.000444225
   1.53852 -0.000309867
    1.5581 -0.000156677
   1.57768 -0.000227264
   1.59727 -0.000175326
   1.61685 -0.000428306
   1.63643 -1.2206e-05
   1.65601 0.000887655
    1.6756 0.000431751
   1.69518 -8.95275e-05
   1.71314 -0.000113713
   1.72902 -0.000421398
   1.74403 -0.00049623
   1.75821 -0.000234659
    1.7716 -0.000523939
   1.78426 -0.00121949
   1.79621 -0.00175594
   1.80751 -0.0023021
   1.81818 -0.0025736
   1.82826 -0.00246052
   1.83779 -0.00237209
   1.84679 -0.00220315
   1.85529 -0.00198854
   1.86332 -0.00180679
   1.87091 -0.00168637
   1.87808 -0.00157289
   1.88485 -0.00141234
   1.89125 -0.00129802
   1.89729 -0.00122607
     1.903 -0.00118831
    1.9084 -0.0011991
    1.9135 -0.00123466
   1.91831 -0.00126229
   1.92286 -0.00129771
   1.92716 -0.00138471
   1.93122 -0.00149263
   1.93506 -0.00158874
   1.93868 -0.00171356
   1.94211 -0.00187022
   1.94534 -0.00200649
    1.9484 -0.00209303
   1.95129 -0.0021213
   1.95401 -0.00209117
   1.95659 -0.00200815
   1.95903 -0.00187859
   1.96133 -0.00171968
    1.9635 -0.00154823
   1.96555 -0.00136881
   1.96749 -0.0011874
   1.96933 -0.0010195
   1.97106 -0.000879957
   1.97269 -0.000773049
   1.97424 -0.000691963
    1.9757 -0.000626274
   1.97708 -0.000568398
   1.97838 -0.000514336
   1.97961 -0.000462302
   1.98077 -0.000412578
   1.98187 -0.000367336
   1.98291 -0.000329475
   1.98389 -0.000301033
   1.98482 -0.000282243
   1.98569 -0.000271669
   1.98652 -0.000267011
    1.9873 -0.000265924
   1.98804 -0.000266497
   1.98874 -0.000267412
    1.9894 -0.000267889
   1.99002 -0.000267542
   1.99061 -0.0002662
   1.99116 -0.000263765
   1.99169 -0.000260138
   1.99218 -0.000255211
   1.99265 -0.000248901
    1.9931 -0.000241067
   1.99355 -0.000231394
   1.99399 -0.000219685
   1.99444 -0.000205969
   1.99488 -0.00019043
   1.99533 -0.000173396
   1.99577 -0.000155307
   1.99622 -0.000136667
   1.99666 -0.000117979
   1.99711 -9.9684e-05
   1.99755 -8.21084e-05
     1.998 -6.54357e-05
   1.99844 -4.97039e-05
   1.99889 -3.48246e-05
   1.99933 -2.06135e-05
   1.99978 -6.82356e-06
         2          0
