         0          0
 0.0002225 -0.000569573
 0.0006675 -0.00138334
 0.0011125 -0.00196009
 0.0015575 -0.00231325
 0.0020025 -0.00254617
 0.0024475 -0.00263004
 0.0028925 -0.00266701
 0.0033375 -0.00260562
 0.0037825 -0.00253811
 0.0042275 -0.00240632
 0.0046725 -0.00228695
 0.0051175 -0.00212703
 0.0055625 -0.0019835
 0.0060075 -0.00181815
 0.0064525 -0.00166346
 0.0068975 -0.00155745
 0.0073476 -0.00133112
0.00781612 -0.00112478
0.00831203 -0.00107111
0.00883694 -0.000803159
0.00939255 -0.000706268
0.00998065 -0.000459377
 0.0106031 -0.000330279
  0.011262 -0.000103592
 0.0119594 4.21039e-05
 0.0126977 0.000245153
  0.013479 0.000389273
 0.0143061 0.000560709
 0.0151815 0.000684731
 0.0161082 0.000814344
  0.017089 0.000902207
 0.0181271 0.000981185
  0.019226  0.0010222
 0.0203891 0.00104646
 0.0216203 0.00103727
 0.0229234 0.00100937
 0.0243028 0.000954511
 0.0257628 0.000883989
 0.0273082 0.000794972
  0.028944 0.000696612
 0.0306754 0.000589137
 0.0325081 0.00048011
 0.0344479 0.000371161
 0.0365012 0.000268548
 0.0386746 0.000174121
  0.040975 9.23986e-05
   0.04341 2.34406e-05
 0.0459873 -3.08426e-05
 0.0487154 -7.16114e-05
  0.051603 -9.82785e-05
 0.0546595 -0.000113969
 0.0578947 -0.000119203
 0.0613191 -0.000117005
 0.0649437 -0.000107796
 0.0687803 -9.55673e-05
 0.0728413 -8.05929e-05
 0.0771397 -6.55424e-05
 0.0816895 -4.9527e-05
 0.0865054 -3.56076e-05
 0.0916029 -2.2432e-05
 0.0969985 -1.33774e-05
   0.10271 -6.47668e-06
  0.108755 -2.33916e-06
  0.115153 1.86487e-06
  0.121926 3.03147e-06
  0.129095 2.74704e-06
  0.136683 -2.99431e-07
  0.144715 -4.94586e-06
  0.153216 -9.21321e-06
  0.162214 -1.26419e-05
  0.171739 -1.12397e-05
  0.181821 -1.19699e-05
  0.192492 -1.24582e-05
  0.203788 -1.83829e-05
  0.215744 -1.68768e-05
  0.228399 -1.63761e-05
  0.241794 -1.79205e-05
  0.255972 -1.28588e-05
   0.27098 -2.40115e-05
  0.286865 -2.79444e-05
  0.304824 5.30271e-05
  0.324407 9.27005e-06
  0.343989 -3.115e-06
  0.363571 -7.00538e-06
  0.383154 -3.75052e-06
  0.402736 -4.99289e-06
  0.422319 -2.27198e-06
  0.441901 -5.75327e-06
  0.461484 -1.80241e-06
  0.481066 -3.71191e-06
  0.500648 -6.11455e-06
  0.520231 -7.90947e-06
  0.539813 -5.05806e-06
  0.559396 -1.08605e-06
  0.578978 5.61009e-06
   0.59856 6.49294e-06
  0.618143 8.76816e-06
  0.637725 9.07255e-06
  0.657308 9.3769e-06
   0.67689 9.47611e-06
  0.696473 1.05605e-05
  0.716055 1.1309e-05
  0.735637 1.2102e-05
   0.75522 1.21662e-05
  0.774802 1.16829e-05
  0.794385 1.12141e-05
  0.813967 1.19077e-05
  0.833549 1.2674e-05
  0.853132 1.41407e-05
  0.872714 1.47245e-05
  0.892297 1.55617e-05
  0.911879 1.61214e-05
  0.931462 1.5704e-05
  0.951044 1.47369e-05
  0.970626 1.40976e-05
  0.990209 1.35962e-05
   1.00979 1.37243e-05
   1.02937 1.37449e-05
   1.04896  1.301e-05
   1.06854 1.28486e-05
   1.08812 1.29864e-05
    1.1077 1.39528e-05
   1.12729 1.41778e-05
   1.14687 1.41022e-05
   1.16645 1.32572e-05
   1.18603  1.286e-05
   1.20562 1.22955e-05
    1.2252 1.18453e-05
   1.24478 1.16191e-05
   1.26436 1.14708e-05
   1.28395 1.09435e-05
   1.30353 1.1597e-05
   1.32311 1.07516e-05
   1.34269 9.98415e-06
   1.36228 8.76546e-06
   1.38186 8.24278e-06
   1.40144 5.38771e-06
   1.42102 4.74678e-06
   1.44061 3.2341e-06
   1.46019 3.17336e-06
   1.47977 1.09099e-06
   1.49935 -1.34188e-06
   1.51894 -5.92088e-06
   1.53852 -6.53364e-06
    1.5581 -7.76201e-06
   1.57768 -5.64964e-06
   1.59727 -1.0948e-05
   1.61685 -9.09833e-06
   1.63643 -9.86111e-06
   1.65601 -1.18767e-06
    1.6756 1.35944e-05
   1.69518 5.74904e-05
   1.71314 -2.86802e-05
   1.72902 -3.00736e-05
   1.74403 -1.88808e-05
   1.75821 -2.02868e-05
    1.7716 -1.7571e-05
   1.78426 -1.65949e-05
   1.79621 -1.64082e-05
   1.80751 -1.11837e-05
   1.81818 -1.09849e-05
   1.82826 -8.62556e-06
   1.83779 -6.93733e-06
   1.84679 -1.89807e-06
   1.85529 1.51987e-06
   1.86332 6.03694e-06
   1.87091 9.65235e-06
   1.87808 1.05643e-05
   1.88485 8.7164e-06
   1.89125 5.16355e-06
   1.89729 1.80253e-06
     1.903 -4.32444e-06
    1.9084 -1.19162e-05
    1.9135 -2.3156e-05
   1.91831 -3.50856e-05
   1.92286 -4.93124e-05
   1.92716 -6.37261e-05
   1.93122 -7.88246e-05
   1.93506 -9.18588e-05
   1.93868 -0.000103227
   1.94211 -0.000108902
   1.94534 -0.000107295
    1.9484 -9.42962e-05
   1.95129 -6.93222e-05
   1.95401 -2.94294e-05
   1.95659 2.43204e-05
   1.95903 9.24117e-05
   1.96133 0.000172174
    1.9635 0.000263311
   1.96555 0.000361548
   1.96749 0.000465564
   1.96933 0.000569485
   1.97106 0.00067197
   1.97269 0.000765579
   1.97424 0.000850149
    1.9757 0.000916498
   1.97708 0.000967549
   1.97838 0.000992145
   1.97961 0.000998742
   1.98077 0.000972727
   1.98187 0.000930853
   1.98291 0.000852059
   1.98389 0.000765303
   1.98482 0.000637989
   1.98569 0.000517036
   1.98652 0.000349965
    1.9873 0.00021052
   1.98804 1.35754e-05
   1.98874 -0.000126526
    1.9894 -0.000345816
   1.99002 -0.000469252
   1.99061 -0.000707827
   1.99116 -0.0007998
   1.99169 -0.00105871
   1.99218 -0.00110875
   1.99265 -0.00130796
    1.9931 -0.00152558
   1.99355 -0.00162713
   1.99399 -0.00177544
   1.99444 -0.00193427
   1.99488 -0.00207158
   1.99533 -0.00222482
   1.99577 -0.00233839
   1.99622 -0.00246394
   1.99666 -0.00252687
   1.99711 -0.00258378
   1.99755 -0.00254536
     1.998 -0.00246163
   1.99844 -0.00223409
   1.99889 -0.00189098
   1.99933 -0.00133308
   1.99978 -0.000548148
         2          0
