         0          0
 0.0002225   -12.1823
 0.0006675   -34.5877
 0.0011125   -66.1732
 0.0015575   -116.127
 0.0020025   -193.652
 0.0024475   -302.044
 0.0028925   -443.044
 0.0033375    -610.96
 0.0037825   -799.487
 0.0042275   -997.087
 0.0046725   -1194.47
 0.0051175   -1380.54
 0.0055625   -1548.45
 0.0060075    -1691.7
 0.0064525   -1807.86
 0.0068975   -1899.34
 0.0073476   -1957.68
0.00781612   -1985.13
0.00831203   -1997.46
0.00883694   -1980.83
0.00939255   -1944.45
0.00998065   -1883.98
 0.0106031   -1808.11
  0.011262   -1715.98
 0.0119594   -1615.23
 0.0126977   -1506.67
  0.013479    -1396.3
 0.0143061   -1285.23
 0.0151815   -1177.54
 0.0161082   -1073.85
  0.017089   -976.522
 0.0181271   -885.539
  0.019226   -801.963
 0.0203891   -725.314
 0.0216203   -655.843
 0.0229234    -592.84
 0.0243028   -536.115
 0.0257628   -484.922
 0.0273082   -438.952
  0.028944   -397.605
 0.0306754   -360.557
 0.0325081   -327.253
 0.0344479   -297.372
 0.0365012   -270.498
 0.0386746   -246.358
  0.040975   -224.608
   0.04341   -205.042
 0.0459873   -187.391
 0.0487154   -171.524
  0.051603   -157.265
 0.0546595   -144.457
 0.0578947   -132.758
 0.0613191   -122.107
 0.0649437   -112.493
 0.0687803   -103.894
 0.0728413   -96.1112
 0.0771397   -88.9977
 0.0816895   -82.4085
 0.0865054   -76.4897
 0.0916029   -71.1026
 0.0969985   -66.1393
   0.10271   -61.5908
  0.108755   -57.5371
  0.115153   -53.7444
  0.121926   -50.2825
  0.129095   -46.9949
  0.136683   -44.0389
  0.144715   -41.1683
  0.153216   -38.9165
  0.162214   -36.4603
  0.171739   -34.6535
  0.181821   -32.1461
  0.192492   -30.7326
  0.203788   -27.8239
  0.215744   -27.8267
  0.228399   -23.8394
  0.241794   -26.0822
  0.255972   -19.4505
   0.27098    -24.688
  0.286865   -18.4096
  0.304824   -16.3165
  0.324407   -18.8168
  0.343989   -14.1752
  0.363571   -16.0105
  0.383154   -12.5012
  0.402736   -13.3734
  0.422319   -11.2736
  0.441901    -11.331
  0.461484    -9.9398
  0.481066   -9.96646
  0.500648    -8.9292
  0.520231   -8.76723
  0.539813   -8.01174
  0.559396   -7.83895
  0.578978   -7.18901
   0.59856   -6.95191
  0.618143   -6.45581
  0.637725   -6.25805
  0.657308   -5.91556
   0.67689   -5.59705
  0.696473   -5.16995
  0.716055   -5.03826
  0.735637   -4.80306
   0.75522   -4.61205
  0.774802    -4.2808
  0.794385   -4.19943
  0.813967   -4.02963
  0.833549   -3.91005
  0.853132   -3.63078
  0.872714   -3.54044
  0.892297   -3.46091
  0.911879   -3.51949
  0.931462   -3.46983
  0.951044   -3.36133
  0.970626   -3.29641
  0.990209   -3.33185
   1.00979   -3.32578
   1.02937   -3.26615
   1.04896    -3.3632
   1.06854    -3.4135
   1.08812   -3.41039
    1.1077   -3.46318
   1.12729   -3.65387
   1.14687   -3.71913
   1.16645   -3.88769
   1.18603   -3.92401
   1.20562    -4.1315
    1.2252   -4.26112
   1.24478   -4.36092
   1.26436   -4.73115
   1.28395   -4.99279
   1.30353    -5.1868
   1.32311   -5.46163
   1.34269   -5.66848
   1.36228   -6.32652
   1.38186   -6.54926
   1.40144   -7.05974
   1.42102   -7.47217
   1.44061   -8.24469
   1.46019   -8.37849
   1.47977   -9.18027
   1.49935   -9.58782
   1.51894   -10.5318
   1.53852   -10.6461
    1.5581   -12.3012
   1.57768   -11.7256
   1.59727   -14.1086
   1.61685   -13.2537
   1.63643    -16.803
   1.65601   -14.2868
    1.6756   -19.5704
   1.69518   -16.5715
   1.71314   -18.7779
   1.72902   -25.2556
   1.74403   -19.4538
   1.75821    -26.017
    1.7716   -23.8662
   1.78426   -27.7618
   1.79621   -27.3691
   1.80751   -30.2959
   1.81818   -31.3762
   1.82826   -33.8259
   1.83779   -35.7362
   1.84679   -38.0736
   1.85529    -40.216
   1.86332   -42.8536
   1.87091   -45.7608
   1.87808   -48.9182
   1.88485   -52.3127
   1.89125   -55.9636
   1.89729    -59.974
     1.903   -64.4811
    1.9084   -69.4178
    1.9135    -74.734
   1.91831   -80.4518
   1.92286   -86.8913
   1.92716    -94.026
   1.93122   -101.786
   1.93506   -110.178
   1.93868   -119.491
   1.94211   -129.875
   1.94534   -141.336
    1.9484   -153.993
   1.95129   -168.136
   1.95401   -183.849
   1.95659   -201.252
   1.95903   -220.505
   1.96133   -241.917
    1.9635   -265.719
   1.96555   -292.252
   1.96749   -321.753
   1.96933     -354.6
   1.97106   -391.079
   1.97269   -431.709
   1.97424   -476.827
    1.9757   -527.078
   1.97708   -582.775
   1.97838   -644.618
   1.97961   -712.747
   1.98077   -787.832
   1.98187   -869.588
   1.98291    -958.45
   1.98389   -1053.32
   1.98482   -1154.16
   1.98569   -1258.59
   1.98652   -1365.98
    1.9873   -1472.26
   1.98804   -1576.34
   1.98874   -1672.34
    1.9894   -1759.53
   1.99002   -1830.48
   1.99061   -1886.18
   1.99116   -1918.28
   1.99169   -1931.17
   1.99218   -1916.06
   1.99265   -1886.57
    1.9931   -1827.38
   1.99355   -1736.59
   1.99399   -1622.48
   1.99444   -1482.87
   1.99488   -1320.21
   1.99533   -1140.82
   1.99577   -951.271
   1.99622   -762.131
   1.99666   -582.127
   1.99711   -422.126
   1.99755    -287.94
     1.998   -184.862
   1.99844   -111.108
   1.99889   -63.5102
   1.99933   -33.2892
   1.99978   -11.7336
         2          0
