         0          0
 0.0002225 4.74277e-12
 0.0006675 2.05563e-10
 0.0011125 9.30201e-10
 0.0015575 2.31736e-09
 0.0020025 4.45463e-09
 0.0024475 7.16465e-09
 0.0028925 1.02531e-08
 0.0033375 1.32822e-08
 0.0037825 1.58912e-08
 0.0042275 1.75903e-08
 0.0046725 1.80592e-08
 0.0051175 1.69452e-08
 0.0055625 1.40697e-08
 0.0060075 9.27473e-09
 0.0064525 2.52235e-09
 0.0068975 -6.13756e-09
 0.0073476 -1.66227e-08
0.00781612 -2.9172e-08
0.00831203 -4.41284e-08
0.00883694 -6.0743e-08
0.00939255 -7.89612e-08
0.00998065 -9.75631e-08
 0.0106031 -1.16199e-07
  0.011262 -1.33662e-07
 0.0119594 -1.49852e-07
 0.0126977 -1.64257e-07
  0.013479 -1.77324e-07
 0.0143061 -1.89083e-07
 0.0151815 -1.9972e-07
 0.0161082 -2.08752e-07
  0.017089 -2.15297e-07
 0.0181271 -2.18387e-07
  0.019226 -2.16889e-07
 0.0203891 -2.10353e-07
 0.0216203 -1.98732e-07
 0.0229234 -1.84555e-07
 0.0243028 -1.70974e-07
 0.0257628 -1.60221e-07
 0.0273082 -1.50446e-07
  0.028944 -1.39071e-07
 0.0306754 -1.2415e-07
 0.0325081 -1.07716e-07
 0.0344479 -9.59697e-08
 0.0365012 -9.87927e-08
 0.0386746 -1.23368e-07
  0.040975 -1.65801e-07
   0.04341 -2.12938e-07
 0.0459873 -2.48861e-07
 0.0487154 -2.65194e-07
  0.051603 -2.73156e-07
 0.0546595 -2.76968e-07
 0.0578947 -2.61365e-07
 0.0613191 -2.40084e-07
 0.0649437 -2.27367e-07
 0.0687803 -2.33264e-07
 0.0728413 -2.31103e-07
 0.0771397 -2.26324e-07
 0.0816895 -2.13188e-07
 0.0865054 -1.84781e-07
 0.0916029 -1.23684e-07
 0.0969985 -8.24313e-08
   0.10271 2.86608e-08
  0.108755 7.79932e-08
  0.115153 1.74356e-07
  0.121926 1.96041e-07
  0.129095 2.75434e-07
  0.136683 3.28246e-07
  0.144715 3.49334e-07
  0.153216 3.20189e-07
  0.162214 3.4697e-07
  0.171739 3.78667e-07
  0.181821 3.33857e-07
  0.192492 3.49754e-07
  0.203788 6.59007e-07
  0.215744 7.92955e-07
  0.228399 1.1743e-06
  0.241794 1.16355e-06
  0.255972 1.38517e-06
   0.27098 1.24854e-06
  0.286865 1.39926e-06
  0.304824 1.45387e-06
  0.324407 8.01649e-07
  0.343989 1.38415e-06
  0.363571 1.33013e-06
  0.383154 1.57657e-06
  0.402736 1.67794e-06
  0.422319 1.8442e-06
  0.441901 1.84729e-06
  0.461484 1.8138e-06
  0.481066 1.9681e-06
  0.500648 1.87433e-06
  0.520231 1.81763e-06
  0.539813 1.52365e-06
  0.559396 1.50553e-06
  0.578978 9.77324e-07
   0.59856 4.04155e-07
  0.618143 1.40644e-07
  0.637725 -3.5538e-07
  0.657308 -7.57295e-07
   0.67689 -1.33748e-06
  0.696473 -1.60861e-06
  0.716055 -1.70268e-06
  0.735637 -1.90818e-06
   0.75522 -1.86476e-06
  0.774802 -1.96574e-06
  0.794385 -1.9198e-06
  0.813967 -1.94736e-06
  0.833549 -1.91573e-06
  0.853132 -2.12739e-06
  0.872714 -2.00645e-06
  0.892297 -1.96773e-06
  0.911879 -1.7586e-06
  0.931462 -1.97898e-06
  0.951044 -1.98381e-06
  0.970626 -1.94799e-06
  0.990209 -1.87875e-06
   1.00979 -1.92486e-06
   1.02937 -1.69529e-06
   1.04896 -1.6104e-06
   1.06854 -1.16252e-06
   1.08812 -1.10569e-06
    1.1077 -8.85583e-07
   1.12729 -8.41039e-07
   1.14687 -6.09412e-07
   1.16645 -3.15386e-07
   1.18603 1.14425e-08
   1.20562 1.90971e-07
    1.2252 3.69654e-07
   1.24478 8.60325e-07
   1.26436 8.12939e-07
   1.28395 8.46459e-07
   1.30353 8.62024e-07
   1.32311 1.12553e-06
   1.34269 9.14073e-07
   1.36228 6.78236e-07
   1.38186 3.96032e-07
   1.40144 4.6362e-07
   1.42102 -1.90193e-07
   1.44061 -5.4427e-07
   1.46019 -8.64163e-07
   1.47977 -1.19611e-06
   1.49935 -9.37517e-07
   1.51894 -1.29637e-06
   1.53852 -1.16084e-06
    1.5581 -1.33004e-06
   1.57768 -1.57729e-06
   1.59727 -1.65904e-06
   1.61685 -1.80252e-06
   1.63643 -1.37973e-06
   1.65601 -2.41588e-06
    1.6756 -2.30086e-06
   1.69518 -2.32867e-06
   1.71314 -2.9175e-06
   1.72902 -2.60319e-06
   1.74403 -2.77474e-06
   1.75821 -2.38982e-06
    1.7716 -2.12511e-06
   1.78426 -2.30683e-06
   1.79621 -2.33265e-06
   1.80751 -2.36908e-06
   1.81818 -2.36428e-06
   1.82826 -2.0604e-06
   1.83779 -2.05801e-06
   1.84679 -1.90683e-06
   1.85529 -1.95875e-06
   1.86332 -1.96729e-06
   1.87091 -2.07283e-06
   1.87808 -2.06235e-06
   1.88485 -2.04911e-06
   1.89125 -2.03733e-06
   1.89729 -2.02342e-06
     1.903 -2.0531e-06
    1.9084 -2.08262e-06
    1.9135 -2.10479e-06
   1.91831 -2.13941e-06
   1.92286 -2.16733e-06
   1.92716 -2.18861e-06
   1.93122 -2.19074e-06
   1.93506 -2.18707e-06
   1.93868 -2.16848e-06
   1.94211 -2.14646e-06
   1.94534 -2.11927e-06
    1.9484 -2.08563e-06
   1.95129 -2.04658e-06
   1.95401 -2.00997e-06
   1.95659 -1.97867e-06
   1.95903 -1.94649e-06
   1.96133 -1.9097e-06
    1.9635 -1.86613e-06
   1.96555 -1.81485e-06
   1.96749 -1.76353e-06
   1.96933 -1.72012e-06
   1.97106 -1.68743e-06
   1.97269 -1.66342e-06
   1.97424 -1.64609e-06
    1.9757 -1.63211e-06
   1.97708 -1.61875e-06
   1.97838 -1.60405e-06
   1.97961 -1.58722e-06
   1.98077 -1.56754e-06
   1.98187 -1.54411e-06
   1.98291 -1.51583e-06
   1.98389 -1.48086e-06
   1.98482 -1.43807e-06
   1.98569 -1.38624e-06
   1.98652 -1.32618e-06
    1.9873 -1.25833e-06
   1.98804 -1.18531e-06
   1.98874 -1.10812e-06
    1.9894 -1.02986e-06
   1.99002 -9.50904e-07
   1.99061 -8.73994e-07
   1.99116 -7.98465e-07
   1.99169 -7.26757e-07
   1.99218 -6.57246e-07
   1.99265 -5.92489e-07
    1.9931 -5.30897e-07
   1.99355 -4.68904e-07
   1.99399 -4.07979e-07
   1.99444 -3.48474e-07
   1.99488 -2.91278e-07
   1.99533 -2.37082e-07
   1.99577 -1.86946e-07
   1.99622 -1.41732e-07
   1.99666 -1.02406e-07
   1.99711 -6.95804e-08
   1.99755 -4.36459e-08
     1.998 -2.45311e-08
   1.99844 -1.17018e-08
   1.99889 -4.27782e-09
   1.99933 -8.67189e-10
   1.99978 -1.79058e-11
         2          0
