         0          0
 0.0002225 -2.53701e-08
 0.0006675 2.53702e-08
 0.0011125 -2.53703e-08
 0.0015575 2.53704e-08
 0.0020025 -2.53705e-08
 0.0024475 2.53707e-08
 0.0028925 -2.53709e-08
 0.0033375 2.53712e-08
 0.0037825 -2.53713e-08
 0.0042275 2.53716e-08
 0.0046725 -2.53717e-08
 0.0051175 2.5372e-08
 0.0055625 -2.53719e-08
 0.0060075 2.5372e-08
 0.0064525 -2.5372e-08
 0.0068975 2.53718e-08
 0.0073476 -2.48028e-08
0.00781612 2.34321e-08
0.00831203 -2.21372e-08
0.00883694 2.09136e-08
0.00939255 -1.97575e-08
0.00998065 1.86651e-08
 0.0106031 -1.7633e-08
  0.011262 1.66606e-08
 0.0119594 -1.5736e-08
 0.0126977 1.48679e-08
  0.013479 -1.40418e-08
 0.0143061 1.32667e-08
 0.0151815 -1.25285e-08
 0.0161082 1.18362e-08
  0.017089 -1.11761e-08
 0.0181271 1.05579e-08
  0.019226 -9.96734e-09
 0.0203891 9.41505e-09
 0.0216203 -8.88695e-09
 0.0229234 8.3928e-09
 0.0243028 -7.92064e-09
 0.0257628 7.47889e-09
 0.0273082 -7.05591e-09
  0.028944 6.66147e-09
 0.0306754 -6.2823e-09
 0.0325081 5.92994e-09
 0.0344479 -5.59054e-09
 0.0365012 5.27472e-09
 0.0386746 -4.97152e-09
  0.040975 4.69015e-09
   0.04341 -4.41717e-09
 0.0459873 4.1658e-09
 0.0487154 -3.92298e-09
  0.051603 3.69573e-09
 0.0546595 -3.47844e-09
 0.0578947 3.27686e-09
 0.0613191 -3.08031e-09
 0.0649437 2.90238e-09
 0.0687803 -2.72608e-09
 0.0728413 2.56692e-09
 0.0771397 -2.40837e-09
 0.0816895 2.26601e-09
 0.0865054 -2.12686e-09
 0.0916029 1.99978e-09
 0.0969985 -1.87393e-09
   0.10271 1.76116e-09
  0.108755 -1.65161e-09
  0.115153 1.55293e-09
  0.121926 -1.45311e-09
  0.129095 1.36561e-09
  0.136683 -1.27545e-09
  0.144715 1.19424e-09
  0.153216 -1.11642e-09
  0.162214 1.05032e-09
  0.171739 -9.77988e-10
  0.181821 9.1816e-10
  0.192492 -8.54618e-10
  0.203788 7.97477e-10
  0.215744 -7.43175e-10
  0.228399 6.92036e-10
  0.241794 -6.31165e-10
  0.255972 5.78857e-10
   0.27098 -5.26265e-10
  0.286865 4.90594e-10
  0.304824 -4.05407e-10
  0.324407 4.02929e-10
  0.343989 -3.85624e-10
  0.363571 3.78727e-10
  0.383154 -3.73815e-10
  0.402736 3.73964e-10
  0.422319 -3.68622e-10
  0.441901 3.67396e-10
  0.461484 -3.57159e-10
  0.481066 3.54418e-10
  0.500648 -3.39519e-10
  0.520231 3.28887e-10
  0.539813 -3.21701e-10
  0.559396 3.19474e-10
  0.578978 -3.08518e-10
   0.59856 3.04668e-10
  0.618143 -2.94562e-10
  0.637725 2.87794e-10
  0.657308 -2.77219e-10
   0.67689 2.71135e-10
  0.696473 -2.58454e-10
  0.716055 2.53197e-10
  0.735637 -2.41798e-10
   0.75522 2.37979e-10
  0.774802 -2.29637e-10
  0.794385 2.25259e-10
  0.813967 -2.15465e-10
  0.833549 2.12901e-10
  0.853132 -2.04864e-10
  0.872714 2.01479e-10
  0.892297 -1.93081e-10
  0.911879 1.89478e-10
  0.931462 -1.80821e-10
  0.951044 1.7799e-10
  0.970626 -1.69386e-10
  0.990209 1.6639e-10
   1.00979 -1.58927e-10
   1.02937 1.56683e-10
   1.04896 -1.49308e-10
   1.06854 1.46334e-10
   1.08812 -1.36564e-10
    1.1077 1.33757e-10
   1.12729 -1.25699e-10
   1.14687 1.22013e-10
   1.16645 -1.10857e-10
   1.18603 1.06135e-10
   1.20562 -9.87323e-11
    1.2252 9.54094e-11
   1.24478 -8.96196e-11
   1.26436 9.46803e-11
   1.28395 -9.2747e-11
   1.30353 9.01313e-11
   1.32311 -8.51949e-11
   1.34269 8.7738e-11
   1.36228 -8.38878e-11
   1.38186 8.77122e-11
   1.40144 -8.65825e-11
   1.42102 8.46311e-11
   1.44061 -8.25064e-11
   1.46019 9.11801e-11
   1.47977 -8.65874e-11
   1.49935 8.89743e-11
   1.51894 -9.14715e-11
   1.53852 9.45504e-11
    1.5581 -9.744e-11
   1.57768 1.11509e-10
   1.59727 -1.22178e-10
   1.61685 1.38603e-10
   1.63643 -1.51629e-10
   1.65601 1.73003e-10
    1.6756 -1.86245e-10
   1.69518 1.98856e-10
   1.71314 -2.44128e-10
   1.72902 2.7536e-10
   1.74403 -3.16508e-10
   1.75821 3.59931e-10
    1.7716 -4.00398e-10
   1.78426 4.50763e-10
   1.79621 -4.95781e-10
   1.80751 5.48448e-10
   1.81818 -6.03878e-10
   1.82826 6.68864e-10
   1.83779 -7.31737e-10
   1.84679 8.01945e-10
   1.85529 -8.69281e-10
   1.86332 9.44977e-10
   1.87091 -1.02691e-09
   1.87808 1.11454e-09
   1.88485 -1.20427e-09
   1.89125 1.30546e-09
   1.89729 -1.40491e-09
     1.903 1.51341e-09
    1.9084 -1.62755e-09
    1.9135 1.75279e-09
   1.91831 -1.87971e-09
   1.92286 2.01973e-09
   1.92716 -2.16624e-09
   1.93122 2.32332e-09
   1.93506 -2.48483e-09
   1.93868 2.66197e-09
   1.94211 -2.84626e-09
   1.94534 3.04262e-09
    1.9484 -3.24741e-09
   1.95129 3.46933e-09
   1.95401 -3.70122e-09
   1.95659 3.94967e-09
   1.95903 -4.21022e-09
   1.96133 4.48858e-09
    1.9635 -4.78125e-09
   1.96555 5.09376e-09
   1.96749 -5.42142e-09
   1.96933 5.77169e-09
   1.97106 -6.13985e-09
   1.97269 6.53225e-09
   1.97424 -6.94493e-09
    1.9757 7.38471e-09
   1.97708 -7.84748e-09
   1.97838 8.33999e-09
   1.97961 -8.85873e-09
   1.98077 9.41018e-09
   1.98187 -9.9914e-09
   1.98291 1.06087e-08
   1.98389 -1.12596e-08
   1.98482 1.19503e-08
   1.98569 -1.26788e-08
   1.98652 1.34516e-08
    1.9873 -1.42666e-08
   1.98804 1.51308e-08
   1.98874 -1.60423e-08
    1.9894 1.70082e-08
   1.99002 -1.80273e-08
   1.99061 1.91067e-08
   1.99116 -2.02458e-08
   1.99169 2.14518e-08
   1.99218 -2.27247e-08
   1.99265 2.40718e-08
    1.9931 -2.4638e-08
   1.99355 2.46521e-08
   1.99399 -2.46635e-08
   1.99444 2.46743e-08
   1.99488 -2.46832e-08
   1.99533 2.46913e-08
   1.99577 -2.4698e-08
   1.99622 2.4704e-08
   1.99666 -2.47089e-08
   1.99711 2.47131e-08
   1.99755 -2.47166e-08
     1.998 2.47193e-08
   1.99844 -2.47215e-08
   1.99889 2.47231e-08
   1.99933 -2.47242e-08
   1.99978 2.47247e-08
         2          0
