         0          0
 0.0002225 2.20714e-08
 0.0006675 1.98618e-07
 0.0011125 5.52223e-07
 0.0015575 1.08277e-06
 0.0020025 1.78723e-06
 0.0024475 2.65772e-06
 0.0028925 3.67991e-06
 0.0033375 4.83265e-06
 0.0037825 6.08888e-06
 0.0042275 7.41773e-06
 0.0046725 8.78716e-06
 0.0051175 1.01666e-05
 0.0055625 1.15292e-05
 0.0060075 1.28526e-05
 0.0064525 1.41201e-05
 0.0068975  1.532e-05
 0.0073476 1.64579e-05
0.00781612 1.75581e-05
0.00831203 1.86288e-05
0.00883694 1.96605e-05
0.00939255 2.0646e-05
0.00998065 2.15798e-05
 0.0106031 2.24588e-05
  0.011262 2.32807e-05
 0.0119594 2.40447e-05
 0.0126977 2.47504e-05
  0.013479 2.53994e-05
 0.0143061 2.59954e-05
 0.0151815 2.65456e-05
 0.0161082 2.70587e-05
  0.017089 2.75426e-05
 0.0181271 2.80008e-05
  0.019226 2.84342e-05
 0.0203891 2.88435e-05
 0.0216203 2.92336e-05
 0.0229234 2.96106e-05
 0.0243028 2.99801e-05
 0.0257628  3.034e-05
 0.0273082 3.06895e-05
  0.028944 3.10298e-05
 0.0306754 3.13619e-05
 0.0325081 3.16862e-05
 0.0344479 3.20178e-05
 0.0365012 3.23733e-05
 0.0386746 3.27562e-05
  0.040975 3.31525e-05
   0.04341 3.35186e-05
 0.0459873 3.37784e-05
 0.0487154 3.38785e-05
  0.051603 3.38148e-05
 0.0546595 3.36008e-05
 0.0578947 3.32284e-05
 0.0613191 3.27902e-05
 0.0649437 3.23156e-05
 0.0687803 3.17911e-05
 0.0728413 3.11793e-05
 0.0771397 3.06058e-05
 0.0816895 3.01526e-05
 0.0865054 2.97668e-05
 0.0916029 2.9356e-05
 0.0969985 2.90598e-05
   0.10271 2.88666e-05
  0.108755 2.87953e-05
  0.115153 2.88091e-05
  0.121926 2.89856e-05
  0.129095 2.92724e-05
  0.136683 3.00022e-05
  0.144715 3.11893e-05
  0.153216 3.22085e-05
  0.162214 3.19806e-05
  0.171739 3.06892e-05
  0.181821 2.77511e-05
  0.192492 2.34778e-05
  0.203788 1.84718e-05
  0.215744 1.31522e-05
  0.228399 8.26098e-06
  0.241794 4.55592e-06
  0.255972 2.73037e-06
   0.27098 8.93599e-07
  0.286865 -9.56696e-07
  0.304824 -2.7613e-06
  0.324407 -2.93146e-07
  0.343989  3.535e-06
  0.363571 3.79115e-06
  0.383154 -7.02673e-07
  0.402736 -2.7178e-06
  0.422319 -1.44609e-06
  0.441901 -1.43638e-06
  0.461484 -1.09336e-06
  0.481066 1.5466e-06
  0.500648 1.44892e-06
  0.520231 -3.85574e-07
  0.539813 9.04807e-07
  0.559396 2.86471e-06
  0.578978 4.11386e-06
   0.59856 2.98869e-06
  0.618143 2.29932e-06
  0.637725 -7.90836e-07
  0.657308 -6.06821e-06
   0.67689 -1.04507e-05
  0.696473 -1.40361e-05
  0.716055 -1.49345e-05
  0.735637 -1.45247e-05
   0.75522 -1.41613e-05
  0.774802 -1.37127e-05
  0.794385 -1.34116e-05
  0.813967 -1.26964e-05
  0.833549 -1.19681e-05
  0.853132 -1.12494e-05
  0.872714 -1.00927e-05
  0.892297 -9.34787e-06
  0.911879 -9.16522e-06
  0.931462 -9.25769e-06
  0.951044 -9.3941e-06
  0.970626 -1.06827e-05
  0.990209 -1.29105e-05
   1.00979 -1.49098e-05
   1.02937 -1.51796e-05
   1.04896 -1.50027e-05
   1.06854 -1.56044e-05
   1.08812 -1.67881e-05
    1.1077 -1.81997e-05
   1.12729 -1.90131e-05
   1.14687 -1.82321e-05
   1.16645 -1.70998e-05
   1.18603 -1.74539e-05
   1.20562 -1.8909e-05
    1.2252 -1.99262e-05
   1.24478 -2.042e-05
   1.26436 -2.13812e-05
   1.28395 -2.25311e-05
   1.30353 -2.39211e-05
   1.32311 -2.39594e-05
   1.34269 -2.41377e-05
   1.36228 -2.50358e-05
   1.38186 -2.775e-05
   1.40144 -3.06307e-05
   1.42102 -3.22793e-05
   1.44061 -3.33025e-05
   1.46019 -3.25701e-05
   1.47977 -3.28335e-05
   1.49935 -3.36568e-05
   1.51894 -3.19565e-05
   1.53852 -2.97488e-05
    1.5581 -2.87697e-05
   1.57768 -2.92516e-05
   1.59727 -3.16273e-05
   1.61685 -3.51241e-05
   1.63643 -3.72135e-05
   1.65601 -3.39042e-05
    1.6756 -3.30575e-05
   1.69518 -3.52407e-05
   1.71314 -3.46076e-05
   1.72902 -3.35661e-05
   1.74403 -3.29374e-05
   1.75821 -3.35006e-05
    1.7716 -3.23522e-05
   1.78426 -3.16537e-05
   1.79621 -3.0539e-05
   1.80751 -2.9187e-05
   1.81818 -2.90586e-05
   1.82826 -2.94791e-05
   1.83779 -3.0408e-05
   1.84679 -3.05907e-05
   1.85529 -3.07139e-05
   1.86332 -3.07242e-05
   1.87091 -3.09609e-05
   1.87808 -3.0839e-05
   1.88485 -3.02483e-05
   1.89125 -2.92112e-05
   1.89729 -2.75919e-05
     1.903 -2.55052e-05
    1.9084 -2.33455e-05
    1.9135 -2.14117e-05
   1.91831 -2.00962e-05
   1.92286 -1.93765e-05
   1.92716 -1.89094e-05
   1.93122 -1.84549e-05
   1.93506 -1.81106e-05
   1.93868 -1.78385e-05
   1.94211 -1.76424e-05
   1.94534 -1.75153e-05
    1.9484 -1.74541e-05
   1.95129 -1.74829e-05
   1.95401 -1.76887e-05
   1.95659 -1.80184e-05
   1.95903 -1.83304e-05
   1.96133 -1.85389e-05
    1.9635 -1.86655e-05
   1.96555 -1.87411e-05
   1.96749 -1.87678e-05
   1.96933 -1.87479e-05
   1.97106 -1.86996e-05
   1.97269 -1.86581e-05
   1.97424 -1.86693e-05
    1.9757 -1.87588e-05
   1.97708 -1.89306e-05
   1.97838 -1.9168e-05
   1.97961 -1.94425e-05
   1.98077 -1.9718e-05
   1.98187 -1.99654e-05
   1.98291 -2.01651e-05
   1.98389 -2.03043e-05
   1.98482 -2.03702e-05
   1.98569 -2.0351e-05
   1.98652 -2.02373e-05
    1.9873 -2.00246e-05
   1.98804 -1.97117e-05
   1.98874 -1.93004e-05
    1.9894 -1.87933e-05
   1.99002 -1.8195e-05
   1.99061 -1.75111e-05
   1.99116 -1.67501e-05
   1.99169 -1.5922e-05
   1.99218 -1.50394e-05
   1.99265 -1.41152e-05
    1.9931 -1.31463e-05
   1.99355 -1.21149e-05
   1.99399 -1.10182e-05
   1.99444 -9.86755e-06
   1.99488 -8.67857e-06
   1.99533 -7.47157e-06
   1.99577 -6.27176e-06
   1.99622 -5.10797e-06
   1.99666 -4.01137e-06
   1.99711 -3.01226e-06
   1.99755 -2.13741e-06
     1.998 -1.40647e-06
   1.99844 -8.30558e-07
   1.99889 -4.11408e-07
   1.99933 -1.4326e-07
   1.99978 -1.52792e-08
         2          0
