         0          0
 0.0002225 -1.08233e-11
 0.0006675 -3.59331e-10
 0.0011125 -1.80383e-09
 0.0015575 -4.99839e-09
 0.0020025 -1.07092e-08
 0.0024475 -1.9491e-08
 0.0028925 -3.18785e-08
 0.0033375 -4.81752e-08
 0.0037825 -6.84884e-08
 0.0042275 -9.27285e-08
 0.0046725 -1.20513e-07
 0.0051175 -1.51416e-07
 0.0055625 -1.84727e-07
 0.0060075 -2.19923e-07
 0.0064525 -2.56209e-07
 0.0068975 -2.9317e-07
 0.0073476 -3.29831e-07
0.00781612 -3.67852e-07
0.00831203 -4.07803e-07
0.00883694 -4.48057e-07
0.00939255 -4.89316e-07
0.00998065 -5.30068e-07
 0.0106031 -5.70973e-07
  0.011262 -6.10814e-07
 0.0119594 -6.50281e-07
 0.0126977 -6.8857e-07
  0.013479 -7.26417e-07
 0.0143061 -7.63463e-07
 0.0151815 -8.00469e-07
 0.0161082 -8.37396e-07
  0.017089 -8.7463e-07
 0.0181271 -9.11637e-07
  0.019226 -9.47388e-07
 0.0203891 -9.80047e-07
 0.0216203 -1.00776e-06
 0.0229234 -1.02986e-06
 0.0243028 -1.0465e-06
 0.0257628 -1.05826e-06
 0.0273082 -1.06534e-06
  0.028944 -1.06951e-06
 0.0306754 -1.07283e-06
 0.0325081 -1.0771e-06
 0.0344479 -1.08284e-06
 0.0365012 -1.09167e-06
 0.0386746 -1.10527e-06
  0.040975 -1.12277e-06
   0.04341 -1.14071e-06
 0.0459873 -1.15437e-06
 0.0487154 -1.15826e-06
  0.051603 -1.15676e-06
 0.0546595 -1.16339e-06
 0.0578947 -1.17489e-06
 0.0613191 -1.19177e-06
 0.0649437 -1.21179e-06
 0.0687803 -1.24798e-06
 0.0728413 -1.28559e-06
 0.0771397 -1.3235e-06
 0.0816895 -1.3595e-06
 0.0865054 -1.40082e-06
 0.0916029 -1.44811e-06
 0.0969985 -1.51871e-06
   0.10271 -1.56881e-06
  0.108755 -1.66734e-06
  0.115153 -1.74438e-06
  0.121926 -1.83372e-06
  0.129095 -1.87469e-06
  0.136683 -1.93353e-06
  0.144715 -1.9536e-06
  0.153216 -2.03837e-06
  0.162214 -2.04995e-06
  0.171739 -2.11823e-06
  0.181821 -2.17135e-06
  0.192492 -2.12252e-06
  0.203788 -1.85038e-06
  0.215744 -1.55629e-06
  0.228399 -1.30746e-06
  0.241794 -9.1949e-07
  0.255972 -4.76608e-07
   0.27098 -1.1304e-07
  0.286865 1.93172e-08
  0.304824 5.19448e-07
  0.324407 5.93995e-07
  0.343989 1.24955e-06
  0.363571 1.57963e-06
  0.383154 1.76157e-06
  0.402736 1.75412e-06
  0.422319 1.65103e-06
  0.441901 1.60212e-06
  0.461484 1.70453e-06
  0.481066 1.78987e-06
  0.500648 2.03993e-06
  0.520231 1.93324e-06
  0.539813 1.77965e-06
  0.559396 1.81218e-06
  0.578978 1.7034e-06
   0.59856 1.69264e-06
  0.618143 1.74372e-06
  0.637725 1.53143e-06
  0.657308 1.21059e-06
   0.67689 7.29467e-07
  0.696473 6.38358e-07
  0.716055 4.4944e-07
  0.735637 2.25457e-07
   0.75522 -6.64739e-09
  0.774802 -1.07443e-07
  0.794385 -1.55246e-07
  0.813967 -2.25323e-07
  0.833549 -3.18868e-07
  0.853132 -4.45239e-07
  0.872714 -4.93649e-07
  0.892297 -4.29599e-07
  0.911879 -3.41303e-07
  0.931462 -4.40476e-07
  0.951044 -4.31313e-07
  0.970626 -3.72751e-07
  0.990209 -3.57502e-07
   1.00979 -3.14616e-07
   1.02937 -3.25617e-07
   1.04896 -4.31407e-07
   1.06854 -3.51339e-07
   1.08812 -4.33247e-07
    1.1077 -4.77808e-07
   1.12729 -6.72506e-07
   1.14687 -7.18973e-07
   1.16645 -7.4994e-07
   1.18603 -9.13067e-07
   1.20562 -1.05317e-06
    1.2252 -1.06705e-06
   1.24478 -9.75201e-07
   1.26436 -1.16242e-06
   1.28395 -1.25802e-06
   1.30353 -1.41744e-06
   1.32311 -1.52462e-06
   1.34269 -1.74648e-06
   1.36228 -2.15335e-06
   1.38186 -2.51857e-06
   1.40144 -2.67249e-06
   1.42102 -3.04428e-06
   1.44061 -3.33617e-06
   1.46019 -3.30505e-06
   1.47977 -3.20731e-06
   1.49935 -2.74712e-06
   1.51894 -2.85839e-06
   1.53852 -2.66238e-06
    1.5581 -2.36901e-06
   1.57768 -2.68547e-06
   1.59727 -2.83349e-06
   1.61685 -2.95189e-06
   1.63643 -3.10591e-06
   1.65601 -3.82723e-06
    1.6756 -3.93916e-06
   1.69518 -4.28396e-06
   1.71314 -4.53486e-06
   1.72902 -4.2081e-06
   1.74403 -4.26053e-06
   1.75821 -3.96362e-06
    1.7716 -3.68777e-06
   1.78426 -3.74204e-06
   1.79621 -3.80763e-06
   1.80751 -3.77413e-06
   1.81818 -3.7022e-06
   1.82826 -3.50681e-06
   1.83779 -3.428e-06
   1.84679 -3.31604e-06
   1.85529 -3.28863e-06
   1.86332 -3.24286e-06
   1.87091 -3.27371e-06
   1.87808 -3.23212e-06
   1.88485 -3.1668e-06
   1.89125 -3.08953e-06
   1.89729 -3.01511e-06
     1.903 -2.96918e-06
    1.9084 -2.93654e-06
    1.9135 -2.91708e-06
   1.91831 -2.92046e-06
   1.92286 -2.92578e-06
   1.92716 -2.92649e-06
   1.93122 -2.91607e-06
   1.93506 -2.91157e-06
   1.93868 -2.90442e-06
   1.94211 -2.90315e-06
   1.94534 -2.88919e-06
    1.9484 -2.86842e-06
   1.95129 -2.84331e-06
   1.95401 -2.82197e-06
   1.95659 -2.80245e-06
   1.95903 -2.78103e-06
   1.96133 -2.75439e-06
    1.9635 -2.72149e-06
   1.96555 -2.68028e-06
   1.96749 -2.63216e-06
   1.96933 -2.57933e-06
   1.97106 -2.52284e-06
   1.97269 -2.4626e-06
   1.97424 -2.39993e-06
    1.9757 -2.33541e-06
   1.97708 -2.26823e-06
   1.97838 -2.19819e-06
   1.97961 -2.12551e-06
   1.98077 -2.05138e-06
   1.98187 -1.97607e-06
   1.98291 -1.90012e-06
   1.98389 -1.82252e-06
   1.98482 -1.7433e-06
   1.98569 -1.66133e-06
   1.98652 -1.57747e-06
    1.9873 -1.49117e-06
   1.98804 -1.40413e-06
   1.98874 -1.31589e-06
    1.9894 -1.22846e-06
   1.99002 -1.14096e-06
   1.99061 -1.05553e-06
   1.99116 -9.70778e-07
   1.99169 -8.89102e-07
   1.99218 -8.08688e-07
   1.99265 -7.32388e-07
    1.9931 -6.58745e-07
   1.99355 -5.8378e-07
   1.99399 -5.09322e-07
   1.99444 -4.35956e-07
   1.99488 -3.65029e-07
   1.99533 -2.97543e-07
   1.99577 -2.34963e-07
   1.99622 -1.78447e-07
   1.99666 -1.29205e-07
   1.99711 -8.80601e-08
   1.99755 -5.54326e-08
     1.998 -3.13298e-08
   1.99844 -1.50269e-08
   1.99889 -5.55309e-09
   1.99933 -1.13576e-09
   1.99978 -2.64151e-11
         2          0
