         0 -8.58389e-18
 0.0002225 4.03333e-17
 0.0006675 6.20637e-17
 0.0011125 5.56444e-17
 0.0015575 -2.24083e-16
 0.0020025 -6.01164e-17
 0.0024475 7.27951e-17
 0.0028925 6.11866e-17
 0.0033375 1.03224e-16
 0.0037825 1.51568e-16
 0.0042275 -3.49729e-16
 0.0046725 -4.26494e-16
 0.0051175 -3.95568e-16
 0.0055625 2.49498e-16
 0.0060075 3.64544e-16
 0.0064525 4.41247e-17
 0.0068975 -1.33218e-16
 0.0073476 4.27081e-17
0.00781612 -9.43157e-17
0.00831203 -8.10463e-17
0.00883694 -1.68292e-16
0.00939255 2.97975e-16
0.00998065 6.89573e-16
 0.0106031 -5.77871e-16
  0.011262 -7.00489e-16
 0.0119594 -2.62528e-16
 0.0126977 1.01532e-15
  0.013479 -4.99223e-17
 0.0143061 -2.11976e-15
 0.0151815 -9.72833e-16
 0.0161082 1.20495e-15
  0.017089 2.34905e-16
 0.0181271 -2.31279e-16
  0.019226 6.20934e-16
 0.0203891 1.11675e-16
 0.0216203 -8.0175e-16
 0.0229234 -1.06275e-16
 0.0243028 4.13132e-16
 0.0257628 -1.08269e-17
 0.0273082 -9.56995e-16
  0.028944 -2.56394e-16
 0.0306754 3.01479e-16
 0.0325081  3.857e-16
 0.0344479 3.47469e-16
 0.0365012 -2.15747e-16
 0.0386746 -2.51932e-16
  0.040975 -6.60263e-16
   0.04341 9.16156e-17
 0.0459873 3.7812e-16
 0.0487154 -1.1299e-16
  0.051603 -3.0673e-16
 0.0546595 5.17487e-16
 0.0578947 -3.42523e-16
 0.0613191 -1.7384e-16
 0.0649437 -4.78961e-17
 0.0687803 -5.22877e-16
 0.0728413 -5.47318e-16
 0.0771397 -6.40243e-16
 0.0816895 -7.24896e-16
 0.0865054 -2.86895e-16
 0.0916029 -1.32889e-16
 0.0969985 -2.46221e-16
   0.10271 -3.28093e-16
  0.108755 -8.6775e-18
  0.115153 -1.31761e-16
  0.121926 -2.63625e-16
  0.129095 -1.63745e-16
  0.136683 -7.36833e-17
  0.144715 2.85505e-17
  0.153216 -6.71507e-17
  0.162214 -3.88347e-16
  0.171739 -2.4216e-16
  0.181821 -1.197e-16
  0.192492 -2.01562e-16
  0.203788 -5.09669e-16
  0.215744 -2.35677e-16
  0.228399 1.95877e-16
  0.241794 -3.38385e-17
  0.255972 1.04372e-17
   0.27098 -1.15644e-16
  0.286865 1.6015e-18
  0.304824 1.71968e-16
  0.324407 1.47882e-16
  0.343989 -7.14317e-17
  0.363571 8.03912e-18
  0.383154 -8.54905e-17
  0.402736 -1.25692e-16
  0.422319 8.67262e-17
  0.441901 -8.60201e-17
  0.461484 -1.84492e-16
  0.481066 -2.31425e-16
  0.500648 -7.62473e-17
  0.520231 -3.91231e-17
  0.539813 6.55265e-17
  0.559396 7.58615e-17
  0.578978 2.85544e-17
   0.59856 -1.60227e-17
  0.618143 7.5342e-17
  0.637725 2.59736e-17
  0.657308 -6.87993e-17
   0.67689 -4.47152e-17
  0.696473 -2.49871e-17
  0.716055 9.71834e-17
  0.735637 5.44353e-17
   0.75522 -6.32883e-17
  0.774802 -5.7232e-17
  0.794385 8.85036e-17
  0.813967 -2.19919e-17
  0.833549 1.38263e-16
  0.853132 5.47799e-17
  0.872714 1.64221e-16
  0.892297 1.16612e-16
  0.911879 -9.4048e-17
  0.931462 -9.71964e-17
  0.951044 -1.78501e-16
  0.970626 -2.66323e-17
  0.990209 3.20069e-17
   1.00979 -2.28501e-16
   1.02937 -1.58772e-16
   1.04896 1.96898e-18
   1.06854 -1.97589e-16
   1.08812 -7.00606e-17
    1.1077 -2.98522e-17
   1.12729 -1.4192e-17
   1.14687 1.71634e-16
   1.16645 1.88727e-17
   1.18603 -2.13995e-17
   1.20562 2.37946e-17
    1.2252 -1.1829e-16
   1.24478 -1.42319e-16
   1.26436 9.37211e-17
   1.28395 -5.93942e-17
   1.30353 -1.69519e-16
   1.32311 -1.94311e-17
   1.34269 -6.41009e-17
   1.36228 9.74132e-17
   1.38186 -1.02305e-16
   1.40144 -2.04015e-17
   1.42102 2.99194e-17
   1.44061 3.12754e-16
   1.46019 -1.56852e-17
   1.47977 -9.9758e-17
   1.49935 4.87088e-17
   1.51894 1.11453e-16
   1.53852 1.43771e-16
    1.5581 2.18159e-16
   1.57768 -1.50546e-18
   1.59727 1.5379e-16
   1.61685 6.1523e-17
   1.63643 -3.06932e-17
   1.65601 -1.69964e-17
    1.6756 7.90246e-17
   1.69518 -1.89041e-16
   1.71314 -1.7025e-16
   1.72902 -1.80951e-16
   1.74403 -2.10467e-16
   1.75821 -3.79563e-17
    1.7716 -2.97484e-16
   1.78426 -9.34586e-18
   1.79621 4.69647e-17
   1.80751 -1.10684e-17
   1.81818 -3.26403e-16
   1.82826 -5.75734e-17
   1.83779 -2.70015e-16
   1.84679 -3.13749e-18
   1.85529 -1.88694e-17
   1.86332 -2.53613e-16
   1.87091 3.97216e-17
   1.87808 -7.90606e-17
   1.88485 -5.82301e-17
   1.89125 5.40316e-16
   1.89729 3.86317e-16
     1.903 3.67313e-16
    1.9084 -8.85336e-17
    1.9135 2.75879e-16
   1.91831 1.17557e-15
   1.92286 9.06031e-17
   1.92716 -7.96622e-16
   1.93122 8.17193e-16
   1.93506 -1.24062e-16
   1.93868 -3.46188e-16
   1.94211 7.74447e-16
   1.94534 -1.31118e-16
    1.9484 -2.38329e-16
   1.95129 4.18887e-16
   1.95401 3.26468e-16
   1.95659 1.67407e-15
   1.95903 9.38662e-16
   1.96133 -1.76906e-15
    1.9635 1.33537e-15
   1.96555 1.33477e-15
   1.96749 2.11972e-15
   1.96933 -2.35441e-15
   1.97106 2.5297e-15
   1.97269 1.06559e-16
   1.97424 3.17431e-15
    1.9757 -4.03485e-15
   1.97708 -9.49978e-16
   1.97838 -1.86995e-15
   1.97961 5.28455e-15
   1.98077 -4.75002e-15
   1.98187 4.3418e-15
   1.98291 -6.78119e-15
   1.98389 1.7726e-15
   1.98482 -3.86483e-15
   1.98569 2.42514e-15
   1.98652 -4.15904e-15
    1.9873 9.33947e-15
   1.98804 -7.32115e-15
   1.98874 2.64586e-15
    1.9894 -1.03476e-15
   1.99002 -1.18633e-15
   1.99061 1.06008e-15
   1.99116 -1.39135e-15
   1.99169 3.37068e-16
   1.99218 -1.38076e-15
   1.99265 -1.08177e-14
    1.9931 2.45463e-15
   1.99355 2.3251e-15
   1.99399 7.90748e-15
   1.99444 -9.93956e-15
   1.99488 8.32614e-16
   1.99533 3.39906e-16
   1.99577 5.05453e-15
   1.99622 -1.81673e-15
   1.99666 -1.16992e-15
   1.99711 2.84383e-15
   1.99755 -3.37956e-15
     1.998 2.14735e-15
   1.99844 2.74168e-15
   1.99889 -9.8493e-16
   1.99933 -3.32895e-16
   1.99978 1.9349e-16
         2 1.46502e-16
