         0  -0.525834
 0.0002225  -0.525822
 0.0006675  -0.527403
 0.0011125  -0.528851
 0.0015575   -0.52723
 0.0020025   -0.51974
 0.0024475  -0.504225
 0.0028925  -0.479737
 0.0033375  -0.446826
 0.0037825  -0.407377
 0.0042275  -0.364054
 0.0046725  -0.319637
 0.0051175  -0.276492
 0.0055625  -0.236296
 0.0060075  -0.200015
 0.0064525  -0.168025
 0.0068975  -0.140298
 0.0073476  -0.116389
0.00781612 -0.0955695
0.00831203 -0.0774549
0.00883694 -0.0619846
0.00939255  -0.048949
0.00998065 -0.0380501
 0.0106031 -0.0289505
  0.011262 -0.0214213
 0.0119594 -0.0154253
 0.0126977 -0.0110904
  0.013479 -0.00847574
 0.0143061 -0.00731582
 0.0151815 -0.00687992
 0.0161082 -0.00621482
  0.017089 -0.00477474
 0.0181271 -0.00287754
  0.019226 -0.00124162
 0.0203891 -0.000251973
 0.0216203 3.37062e-05
 0.0229234 -0.000374391
 0.0243028  -0.001676
 0.0257628 -0.00453599
 0.0273082 -0.00894019
  0.028944 -0.0135754
 0.0306754 -0.0178384
 0.0325081 -0.0218941
 0.0344479 -0.0257855
 0.0365012   -0.02832
 0.0386746 -0.0294625
  0.040975 -0.0289016
   0.04341 -0.0265074
 0.0459873  -0.023911
 0.0487154 -0.0231629
  0.051603 -0.0230639
 0.0546595 -0.0217171
 0.0578947 -0.0203201
 0.0613191 -0.0174248
 0.0649437 -0.0122571
 0.0687803 -0.00715104
 0.0728413 -0.00591741
 0.0771397 -0.0065672
 0.0816895 -0.00650065
 0.0865054 -0.00673549
 0.0916029 -0.00673055
 0.0969985 -0.00622499
   0.10271 -0.00528088
  0.108755 -0.00522851
  0.115153  -0.006331
  0.121926 -0.00854239
  0.129095 -0.0100583
  0.136683 -0.00813488
  0.144715 -0.00269363
  0.153216  0.0010734
  0.162214 0.000786863
  0.171739 0.00133853
  0.181821 0.000641911
  0.192492 -0.00205916
  0.203788 -0.00303823
  0.215744 -0.00158101
  0.228399 -0.00369558
  0.241794 -0.00294343
  0.255972 0.00118932
   0.27098 0.00132627
  0.286865 0.000189705
  0.304824 -0.000370523
  0.324407 -0.000898085
  0.343989 -0.000677688
  0.363571 -0.0002252
  0.383154 -0.00265539
  0.402736 -0.00179871
  0.422319 -0.000314304
  0.441901 0.00156884
  0.461484 0.00124553
  0.481066 0.00118141
  0.500648 0.00120465
  0.520231 -0.000789983
  0.539813 -0.00136303
  0.559396 -0.00184001
  0.578978 -0.00180851
   0.59856 -0.000597724
  0.618143 0.000298686
  0.637725 0.000605541
  0.657308 0.000872303
   0.67689 -6.51177e-05
  0.696473 -0.00207809
  0.716055 -0.00127381
  0.735637 -0.000952435
   0.75522 -0.000757254
  0.774802 -0.000404538
  0.794385 -0.00106476
  0.813967 -0.000824533
  0.833549 -0.00108637
  0.853132 -0.00145889
  0.872714 -0.000726144
  0.892297 -0.000215954
  0.911879 -0.000625816
  0.931462 -0.000854565
  0.951044 -0.000119712
  0.970626 0.000110182
  0.990209 -0.000510761
   1.00979 -0.000535334
   1.02937 -3.28497e-05
   1.04896 -0.000531413
   1.06854 -0.00195236
   1.08812 -0.00245433
    1.1077 -0.00264405
   1.12729 -0.00197677
   1.14687 -0.000781056
   1.16645 -0.000421972
   1.18603 -0.00135528
   1.20562 -0.00130325
    1.2252 -0.00044751
   1.24478 0.000520926
   1.26436 0.00121376
   1.28395 0.00113945
   1.30353 -0.00126465
   1.32311 -0.00194066
   1.34269 -0.00155193
   1.36228 -0.00115159
   1.38186 -0.00065854
   1.40144 0.000526836
   1.42102 0.00218436
   1.44061 0.000947201
   1.46019 0.00182028
   1.47977 0.000670599
   1.49935 -0.00159842
   1.51894 -0.000562035
   1.53852 0.00152676
    1.5581 0.00345743
   1.57768 0.00471745
   1.59727 0.00624519
   1.61685 0.00531595
   1.63643 0.00340348
   1.65601 0.00279299
    1.6756 0.00261885
   1.69518 0.00596038
   1.71314 0.00701255
   1.72902  0.0045919
   1.74403 0.00370866
   1.75821 0.00207587
    1.7716 -0.000818415
   1.78426 -0.0039021
   1.79621 -0.00551694
   1.80751 -0.00270251
   1.81818 0.00266776
   1.82826 0.00406204
   1.83779 0.00522815
   1.84679   0.007729
   1.85529 0.00822712
   1.86332 0.00833159
   1.87091 0.00803901
   1.87808 0.00901009
   1.88485  0.0106095
   1.89125  0.0110804
   1.89729  0.0135713
     1.903  0.0177664
    1.9084  0.0192043
    1.9135  0.0182275
   1.91831  0.0149996
   1.92286 0.00968687
   1.92716 0.00547472
   1.93122  0.0038415
   1.93506 0.00117898
   1.93868 -0.00092216
   1.94211 -0.00239843
   1.94534 -0.00391874
    1.9484 -0.00174574
   1.95129 0.00406229
   1.95401 0.00800883
   1.95659 0.00925906
   1.95903   0.011282
   1.96133   0.015593
    1.9635  0.0199106
   1.96555  0.0222047
   1.96749  0.0240959
   1.96933   0.026045
   1.97106  0.0284562
   1.97269   0.030908
   1.97424  0.0315294
    1.9757  0.0292982
   1.97708  0.0242088
   1.97838   0.016956
   1.97961 0.00873563
   1.98077  0.0014021
   1.98187 -0.00390104
   1.98291 -0.00744561
   1.98389 -0.00999434
   1.98482 -0.0117894
   1.98569 -0.0123613
   1.98652 -0.0110812
    1.9873 -0.00767432
   1.98804 -0.00228968
   1.98874 0.00480748
    1.9894  0.0134912
   1.99002  0.0238667
   1.99061    0.03611
   1.99116   0.050326
   1.99169  0.0664448
   1.99218  0.0843019
   1.99265   0.103652
    1.9931   0.124686
   1.99355   0.147921
   1.99399   0.173684
   1.99444    0.20209
   1.99488   0.232986
   1.99533   0.265747
   1.99577   0.299063
   1.99622   0.330838
   1.99666   0.358305
   1.99711   0.378475
   1.99755   0.388887
     1.998   0.388441
   1.99844   0.377935
   1.99889   0.360015
   1.99933   0.338543
   1.99978   0.317741
         2    0.30879
