         0 -0.0882718
 0.0002225 -0.0883402
 0.0006675 -0.0886072
 0.0011125 -0.0891189
 0.0015575 -0.0898248
 0.0020025 -0.0906314
 0.0024475 -0.0914003
 0.0028925 -0.0919624
 0.0033375 -0.0921429
 0.0037825 -0.0917937
 0.0042275 -0.0908225
 0.0046725 -0.0892113
 0.0051175 -0.0870202
 0.0055625 -0.0843774
 0.0060075 -0.0814546
 0.0064525 -0.0784349
 0.0068975 -0.0754704
 0.0073476 -0.0726316
0.00781612 -0.0698954
0.00831203 -0.0672024
0.00883694 -0.0644859
0.00939255 -0.0616775
0.00998065 -0.0587656
 0.0106031 -0.0558526
  0.011262 -0.0531662
 0.0119594 -0.0509866
 0.0126977 -0.0494928
  0.013479 -0.0485843
 0.0143061 -0.0477817
 0.0151815 -0.0462699
 0.0161082 -0.0430694
  0.017089 -0.0373063
 0.0181271 -0.0285846
  0.019226 -0.0173288
 0.0203891 -0.00481532
 0.0216203 0.00716662
 0.0229234  0.0168288
 0.0243028  0.0229885
 0.0257628  0.0253548
 0.0273082  0.0241515
  0.028944  0.0198222
 0.0306754  0.0130945
 0.0325081 0.00508179
 0.0344479 -0.00216007
 0.0365012 -0.00692815
 0.0386746 -0.0108692
  0.040975 -0.0158201
   0.04341 -0.0186278
 0.0459873 -0.0166364
 0.0487154 -0.0118757
  0.051603 -0.00717856
 0.0546595 -0.0032792
 0.0578947 0.00158788
 0.0613191 0.00737937
 0.0649437  0.0115278
 0.0687803  0.0107615
 0.0728413 0.00891893
 0.0771397  0.0137648
 0.0816895  0.0210565
 0.0865054  0.0273875
 0.0916029  0.0343415
 0.0969985  0.0380422
   0.10271  0.0323995
  0.108755  0.0132352
  0.115153 -0.0106807
  0.121926  -0.021184
  0.129095 -0.0105328
  0.136683 0.00687228
  0.144715  0.0144576
  0.153216 -0.00277878
  0.162214 -0.0281108
  0.171739 -0.0313767
  0.181821 -0.0268198
  0.192492 -0.0185052
  0.203788 0.00794197
  0.215744  0.0439859
  0.228399  0.0534349
  0.241794  0.0118995
  0.255972 -0.0215642
   0.27098 -0.00952825
  0.286865  0.0159443
  0.304824  0.0312674
  0.324407 -0.00224082
  0.343989 -0.0236307
  0.363571 0.00344145
  0.383154  0.0168389
  0.402736 0.00723571
  0.422319 -0.0160332
  0.441901 -0.0145721
  0.461484  0.0166119
  0.481066  0.0230324
  0.500648  0.0106525
  0.520231  0.0215557
  0.539813  0.0395711
  0.559396  0.0379663
  0.578978  0.0194773
   0.59856  0.0133948
  0.618143 0.00623263
  0.637725 -0.0228196
  0.657308 -0.0397513
   0.67689 -0.0397215
  0.696473 -0.0274632
  0.716055  -0.012604
  0.735637 -0.00879022
   0.75522 -0.0111902
  0.774802 -0.0139807
  0.794385 -0.00996276
  0.813967 -0.000822921
  0.833549 0.00293766
  0.853132 0.00149643
  0.872714 0.00286695
  0.892297 0.00624792
  0.911879 0.00523365
  0.931462 -0.00131655
  0.951044 -0.00256913
  0.970626 0.00518196
  0.990209 0.00858134
   1.00979 -0.00174201
   1.02937 -0.0173476
   1.04896 -0.0156372
   1.06854 0.00110661
   1.08812 0.00640092
    1.1077 -0.00103402
   1.12729 -0.00862049
   1.14687 -0.00761058
   1.16645 0.00940551
   1.18603  0.0211546
   1.20562 0.00846691
    1.2252 0.00346914
   1.24478  0.0170017
   1.26436  0.0256258
   1.28395  0.0233233
   1.30353  0.0171625
   1.32311  0.0127052
   1.34269   0.010715
   1.36228  0.0111722
   1.38186 -0.00352776
   1.40144 -0.0163054
   1.42102 -0.00768464
   1.44061 -0.0184714
   1.46019 -0.0308241
   1.47977  -0.032164
   1.49935 -0.0391039
   1.51894   -0.01657
   1.53852 0.00734195
    1.5581  0.0021091
   1.57768 -0.000476147
   1.59727 -0.0051332
   1.61685 0.00416493
   1.63643  0.0336004
   1.65601  0.0113355
    1.6756 -0.0249504
   1.69518 -0.0139831
   1.71314 -0.0103581
   1.72902 -0.0121779
   1.74403 0.00673118
   1.75821 -0.00157375
    1.7716 -0.0382794
   1.78426 -0.0499162
   1.79621 -0.0466111
   1.80751 -0.0368975
   1.81818 -0.00711307
   1.82826  0.0102502
   1.83779  0.0140291
   1.84679  0.0220096
   1.85529  0.0239367
   1.86332  0.0192493
   1.87091  0.0158501
   1.87808  0.0197681
   1.88485   0.020786
   1.89125  0.0148842
   1.89729 0.00925742
     1.903 0.00230626
    1.9084 -0.00448809
    1.9135 -0.00635667
   1.91831 -0.00676101
   1.92286 -0.0140124
   1.92716  -0.023408
   1.93122 -0.0258143
   1.93506 -0.0297438
   1.93868 -0.0400918
   1.94211 -0.0439351
   1.94534 -0.0352179
    1.9484 -0.0190516
   1.95129 0.00062752
   1.95401  0.0216277
   1.95659  0.0427096
   1.95903  0.0611431
   1.96133  0.0739843
    1.9635  0.0831375
   1.96555  0.0904511
   1.96749  0.0925666
   1.96933  0.0861055
   1.97106   0.072977
   1.97269   0.058914
   1.97424  0.0487315
    1.9757   0.043476
   1.97708   0.041723
   1.97838   0.041876
   1.97961  0.0425079
   1.98077  0.0419613
   1.98187  0.0388208
   1.98291  0.0327344
   1.98389  0.0246385
   1.98482  0.0161785
   1.98569  0.0088557
   1.98652 0.00351179
    1.9873 0.000307221
   1.98804 -0.00104399
   1.98874 -0.00101749
    1.9894 -8.34836e-05
   1.99002 0.00141928
   1.99061 0.00333198
   1.99116 0.00564638
   1.99169 0.00842323
   1.99218  0.0117018
   1.99265   0.015436
    1.9931  0.0195708
   1.99355  0.0240251
   1.99399  0.0285675
   1.99444  0.0328707
   1.99488  0.0365997
   1.99533  0.0394645
   1.99577  0.0412684
   1.99622  0.0419413
   1.99666  0.0415536
   1.99711  0.0403039
   1.99755  0.0384812
     1.998  0.0364096
   1.99844  0.0343945
   1.99889  0.0326858
   1.99933  0.0314619
   1.99978  0.0308282
         2  0.0306677
