         0 -1.6601e-19
 0.0002225 -1.13762e-18
 0.0006675 -6.38701e-18
 0.0011125 -5.92207e-18
 0.0015575 -1.12588e-17
 0.0020025 -2.28117e-17
 0.0024475 -2.25592e-17
 0.0028925 -8.62829e-18
 0.0033375 -2.60513e-17
 0.0037825 -4.15777e-17
 0.0042275 -1.4432e-17
 0.0046725 -5.29713e-17
 0.0051175 -9.11819e-18
 0.0055625 -1.14257e-17
 0.0060075 -8.59759e-17
 0.0064525 -3.3802e-17
 0.0068975 -2.65573e-17
 0.0073476 1.5303e-17
0.00781612 -2.74611e-17
0.00831203 -5.92908e-17
0.00883694 -6.8196e-17
0.00939255 -2.13143e-17
0.00998065 -5.40182e-17
 0.0106031 -8.66515e-18
  0.011262 -4.15834e-17
 0.0119594 -8.79775e-17
 0.0126977 -2.71577e-17
  0.013479 -4.24466e-17
 0.0143061 6.6262e-17
 0.0151815 -4.00882e-17
 0.0161082 -5.1823e-17
  0.017089 -8.85786e-17
 0.0181271 -7.13118e-17
  0.019226 -1.737e-17
 0.0203891 -1.86542e-17
 0.0216203 -4.50467e-17
 0.0229234 -7.07906e-18
 0.0243028 6.31079e-18
 0.0257628 -4.73416e-17
 0.0273082 2.64982e-18
  0.028944 -5.59897e-17
 0.0306754 1.38514e-17
 0.0325081 -2.44052e-17
 0.0344479 -1.10623e-17
 0.0365012 7.24726e-18
 0.0386746 1.47024e-17
  0.040975 2.54158e-17
   0.04341 1.78477e-17
 0.0459873 1.56439e-17
 0.0487154 1.46382e-16
  0.051603 3.83885e-17
 0.0546595 -2.09674e-17
 0.0578947 4.49293e-17
 0.0613191 1.52384e-17
 0.0649437 1.31697e-17
 0.0687803 -2.33057e-17
 0.0728413 6.98122e-18
 0.0771397 3.15967e-17
 0.0816895 9.95731e-19
 0.0865054 3.41963e-17
 0.0916029 4.1234e-18
 0.0969985 6.70804e-18
   0.10271 2.52117e-17
  0.108755 2.21243e-17
  0.115153 8.23946e-17
  0.121926 2.80557e-17
  0.129095 5.5312e-17
  0.136683 7.64783e-18
  0.144715 7.35179e-17
  0.153216 2.35023e-17
  0.162214  2.983e-17
  0.171739 -5.12507e-19
  0.181821 -1.8365e-17
  0.192492 2.89241e-17
  0.203788 3.79941e-17
  0.215744 -5.90666e-18
  0.228399 -2.55609e-17
  0.241794 -3.27212e-17
  0.255972 4.45363e-17
   0.27098 -3.96497e-17
  0.286865 3.60038e-18
  0.304824 -2.94757e-18
  0.324407 -5.41094e-17
  0.343989 5.86614e-18
  0.363571 3.24561e-17
  0.383154 -1.29895e-17
  0.402736 1.46253e-17
  0.422319 -6.13884e-18
  0.441901 -6.98785e-18
  0.461484 -3.09466e-17
  0.481066 -6.18703e-18
  0.500648 1.13671e-16
  0.520231 -6.66725e-17
  0.539813 -2.36404e-17
  0.559396 2.51953e-18
  0.578978 2.05189e-17
   0.59856 -9.74228e-17
  0.618143 1.31228e-17
  0.637725 3.62987e-17
  0.657308 9.78557e-17
   0.67689 -2.56014e-17
  0.696473 1.02718e-16
  0.716055 3.6349e-17
  0.735637 1.26319e-18
   0.75522 -3.5017e-17
  0.774802 -1.37586e-16
  0.794385 6.12617e-17
  0.813967 -3.67328e-17
  0.833549 3.62249e-17
  0.853132 -3.03418e-17
  0.872714 7.90922e-17
  0.892297 2.78003e-17
  0.911879 2.86854e-17
  0.931462 6.93841e-18
  0.951044 -3.97092e-17
  0.970626 -4.87035e-17
  0.990209 -1.48953e-17
   1.00979 8.43808e-18
   1.02937 2.55463e-17
   1.04896 3.70173e-17
   1.06854 -2.02802e-17
   1.08812 3.49499e-17
    1.1077 2.99233e-18
   1.12729 -4.15025e-17
   1.14687 -1.63973e-17
   1.16645 -6.0209e-18
   1.18603 2.76669e-17
   1.20562 1.01349e-17
    1.2252 -4.16078e-17
   1.24478 3.42623e-17
   1.26436 2.23895e-17
   1.28395 -2.53932e-17
   1.30353 1.5746e-17
   1.32311 -1.52511e-18
   1.34269 1.05041e-17
   1.36228 7.65147e-17
   1.38186 -6.11735e-17
   1.40144 4.48953e-18
   1.42102 -1.40195e-17
   1.44061 6.57488e-18
   1.46019 -1.00003e-17
   1.47977 -5.58277e-17
   1.49935 2.66358e-17
   1.51894 -4.14841e-17
   1.53852 2.66943e-18
    1.5581 2.16578e-17
   1.57768 1.04751e-17
   1.59727 -1.16185e-17
   1.61685 9.28944e-18
   1.63643 -1.66262e-17
   1.65601 5.24407e-18
    1.6756 -7.53023e-18
   1.69518 -1.43097e-17
   1.71314 -4.4128e-17
   1.72902 -7.49902e-17
   1.74403 -2.7392e-17
   1.75821 -1.24023e-17
    1.7716 -3.44342e-17
   1.78426 -6.65029e-17
   1.79621 -3.13626e-17
   1.80751 -7.86638e-18
   1.81818 -2.29294e-17
   1.82826 -2.88312e-17
   1.83779 -4.39948e-17
   1.84679 1.25566e-17
   1.85529 3.82585e-17
   1.86332 1.82786e-17
   1.87091 2.08004e-17
   1.87808 6.52853e-18
   1.88485 9.66083e-18
   1.89125 4.36507e-17
   1.89729 7.40133e-18
     1.903 6.43797e-17
    1.9084 3.58064e-17
    1.9135 3.17198e-17
   1.91831 -2.18858e-17
   1.92286 -9.33146e-18
   1.92716 -5.21493e-18
   1.93122 2.44258e-17
   1.93506 -2.03079e-17
   1.93868 5.63868e-17
   1.94211 1.44146e-17
   1.94534 -1.44101e-17
    1.9484 -6.92058e-18
   1.95129 1.00998e-16
   1.95401 8.98816e-18
   1.95659 -2.66989e-17
   1.95903 2.7958e-17
   1.96133 3.22875e-17
    1.9635 -7.76079e-17
   1.96555 6.11716e-17
   1.96749 6.35485e-17
   1.96933 3.0561e-17
   1.97106 3.8074e-17
   1.97269 4.40178e-17
   1.97424 1.5481e-16
    1.9757 -3.39512e-17
   1.97708 -4.77359e-17
   1.97838 7.09586e-17
   1.97961 -1.45258e-16
   1.98077 2.89013e-16
   1.98187 -3.3941e-16
   1.98291 4.08573e-16
   1.98389 -1.69709e-16
   1.98482 7.3048e-17
   1.98569 -1.33924e-16
   1.98652 -2.27065e-17
    1.9873  1.581e-16
   1.98804 2.61556e-17
   1.98874 -4.19787e-17
    1.9894 4.84956e-17
   1.99002 -8.20362e-17
   1.99061 1.76039e-16
   1.99116 -9.14744e-17
   1.99169 -1.17488e-16
   1.99218 1.51982e-16
   1.99265 1.13264e-16
    1.9931 -1.51075e-16
   1.99355 4.61033e-16
   1.99399 -2.10445e-16
   1.99444 2.67752e-16
   1.99488 9.0397e-17
   1.99533 -3.03624e-16
   1.99577 4.71302e-17
   1.99622 1.23439e-16
   1.99666 -1.98524e-16
   1.99711 1.63607e-16
   1.99755 -7.01176e-17
     1.998 2.31352e-17
   1.99844 -4.38075e-17
   1.99889 1.07771e-16
   1.99933 -4.53179e-17
   1.99978 4.37346e-17
         2 4.28601e-17
