         0 -1.1473e-06
 0.0002225 -1.1473e-06
 0.0006675 -7.80396e-06
 0.0011125 -2.07923e-05
 0.0015575 -3.94288e-05
 0.0020025 -6.26016e-05
 0.0024475 -8.89103e-05
 0.0028925 -0.000116861
 0.0033375 -0.000145056
 0.0037825 -0.000172334
 0.0042275 -0.000197828
 0.0046725 -0.000220956
 0.0051175 -0.000241369
 0.0055625 -0.000258881
 0.0060075 -0.000273413
 0.0064525 -0.000284959
 0.0068975 -0.000293563
 0.0073476 -0.000299375
0.00781612 -0.000302495
0.00831203 -0.000302757
0.00883694 -0.000299956
0.00939255 -0.000293976
0.00998065 -0.000284811
 0.0106031 -0.000272577
  0.011262 -0.000257515
 0.0119594 -0.000239997
 0.0126977 -0.00022052
  0.013479 -0.000199703
 0.0143061 -0.000178239
 0.0151815 -0.000156857
 0.0161082 -0.000136352
  0.017089 -0.000117538
 0.0181271 -0.000101118
  0.019226 -8.74675e-05
 0.0203891 -7.639e-05
 0.0216203 -6.71715e-05
 0.0229234 -5.91121e-05
 0.0243028 -5.1856e-05
 0.0257628 -4.49235e-05
 0.0273082 -3.75275e-05
  0.028944 -2.92504e-05
 0.0306754 -2.08562e-05
 0.0325081 -1.36697e-05
 0.0344479 -8.15962e-06
 0.0365012 -4.67734e-06
 0.0386746 -3.48268e-06
  0.040975 -2.90439e-06
   0.04341 -7.61583e-07
 0.0459873 2.68109e-06
 0.0487154 5.94792e-06
  0.051603 7.94876e-06
 0.0546595 7.90839e-06
 0.0578947 7.78835e-06
 0.0613191 9.69043e-06
 0.0649437 1.13501e-05
 0.0687803 1.21729e-05
 0.0728413 1.31616e-05
 0.0771397 1.32189e-05
 0.0816895 1.08004e-05
 0.0865054 6.74629e-06
 0.0916029 3.97475e-06
 0.0969985 4.25212e-06
   0.10271 5.82498e-06
  0.108755 3.5956e-06
  0.115153 1.04373e-06
  0.121926 -2.63043e-07
  0.129095  7.403e-08
  0.136683 1.88136e-06
  0.144715 1.15438e-06
  0.153216 -2.38132e-06
  0.162214 -8.06994e-07
  0.171739 1.66115e-06
  0.181821 1.70819e-06
  0.192492 -1.84736e-06
  0.203788 -2.33505e-06
  0.215744 -4.52814e-06
  0.228399 -1.17046e-05
  0.241794 -9.53534e-06
  0.255972 -4.19111e-06
   0.27098 -4.00612e-06
  0.286865 -4.1285e-06
  0.304824 -3.26269e-06
  0.324407 -5.20776e-06
  0.343989 -5.15385e-06
  0.363571 -9.41215e-06
  0.383154 -1.88271e-06
  0.402736 5.39115e-06
  0.422319 -2.62208e-07
  0.441901 -9.9969e-07
  0.461484 -2.73505e-06
  0.481066 1.64584e-06
  0.500648 2.50091e-06
  0.520231 4.2392e-06
  0.539813 2.05308e-06
  0.559396 2.12379e-06
  0.578978 3.36596e-06
   0.59856 7.18069e-06
  0.618143 5.82761e-06
  0.637725 7.3925e-06
  0.657308 3.53672e-07
   0.67689 1.26685e-06
  0.696473 3.22212e-06
  0.716055 1.76083e-08
  0.735637 3.59623e-07
   0.75522 2.74683e-06
  0.774802 2.04597e-06
  0.794385 2.92643e-06
  0.813967 1.31205e-06
  0.833549 -2.49594e-07
  0.853132 -1.65633e-06
  0.872714 9.95903e-07
  0.892297 -6.35559e-07
  0.911879 5.42718e-07
  0.931462 -1.53995e-08
  0.951044 2.48449e-06
  0.970626 5.4547e-06
  0.990209 3.63122e-06
   1.00979 2.80538e-06
   1.02937 -1.41101e-07
   1.04896 -7.34507e-07
   1.06854 2.27208e-07
   1.08812 1.18311e-06
    1.1077 2.70622e-06
   1.12729 3.87471e-06
   1.14687 4.48288e-06
   1.16645 4.34994e-06
   1.18603 2.18914e-06
   1.20562 -1.71941e-06
    1.2252 -1.10528e-06
   1.24478 2.10542e-06
   1.26436 1.15721e-06
   1.28395 3.97894e-07
   1.30353 -2.1407e-06
   1.32311 -2.97425e-06
   1.34269 6.38265e-07
   1.36228 1.84714e-07
   1.38186 6.28219e-07
   1.40144 -2.85185e-07
   1.42102 -5.32919e-06
   1.44061 -1.44016e-06
   1.46019 7.31861e-08
   1.47977 -1.52504e-06
   1.49935 2.17921e-08
   1.51894 2.57008e-06
   1.53852 3.48963e-06
    1.5581 3.92836e-06
   1.57768 5.6738e-06
   1.59727 1.85301e-06
   1.61685 4.75389e-06
   1.63643 6.36819e-06
   1.65601 -1.40661e-06
    1.6756 -5.07331e-06
   1.69518 -7.39751e-06
   1.71314 -7.0552e-06
   1.72902 -6.03998e-07
   1.74403 5.3064e-06
   1.75821 -3.33067e-06
    1.7716 -7.37314e-07
   1.78426 3.9939e-06
   1.79621 8.05174e-07
   1.80751 -7.24484e-07
   1.81818 2.88053e-08
   1.82826 3.25068e-06
   1.83779 4.21983e-06
   1.84679 3.55749e-06
   1.85529 5.64497e-07
   1.86332 -7.49363e-07
   1.87091 1.07739e-06
   1.87808 5.57601e-06
   1.88485 8.81974e-06
   1.89125 9.24239e-06
   1.89729 1.07975e-05
     1.903 9.61429e-06
    1.9084 3.94622e-06
    1.9135 2.59568e-06
   1.91831 3.44108e-06
   1.92286 1.11283e-06
   1.92716 -3.6597e-06
   1.93122 -6.20715e-06
   1.93506 -5.44923e-06
   1.93868 -2.94735e-06
   1.94211 -3.87957e-07
   1.94534 2.29665e-06
    1.9484 4.4107e-06
   1.95129 5.68974e-06
   1.95401 7.90035e-06
   1.95659 1.20006e-05
   1.95903 1.65468e-05
   1.96133 1.98397e-05
    1.9635 2.20116e-05
   1.96555 2.42999e-05
   1.96749 2.63426e-05
   1.96933 2.67025e-05
   1.97106 2.55784e-05
   1.97269 2.46554e-05
   1.97424 2.50753e-05
    1.9757 2.71535e-05
   1.97708 3.07309e-05
   1.97838 3.53383e-05
   1.97961 4.05368e-05
   1.98077 4.61301e-05
   1.98187 5.22254e-05
   1.98291 5.9116e-05
   1.98389 6.71075e-05
   1.98482 7.63389e-05
   1.98569 8.67533e-05
   1.98652 9.81184e-05
    1.9873 0.000110034
   1.98804 0.000121998
   1.98874 0.000133517
    1.9894 0.000144188
   1.99002 0.000153716
   1.99061 0.000161911
   1.99116 0.000168662
   1.99169 0.000173902
   1.99218 0.000177592
   1.99265 0.000179713
    1.9931 0.000180262
   1.99355 0.000179121
   1.99399 0.00017604
   1.99444 0.000170737
   1.99488 0.000162946
   1.99533 0.000152457
   1.99577 0.000139185
   1.99622 0.000123245
   1.99666 0.000105033
   1.99711 8.52759e-05
   1.99755 6.50355e-05
     1.998 4.56296e-05
   1.99844 2.84569e-05
   1.99889 1.47589e-05
   1.99933 5.39764e-06
   1.99978 7.52891e-07
         2 7.52891e-07
