         0 -0.000500872
 0.0002225 -0.000500872
 0.0006675 -0.00353853
 0.0011125 -0.00976139
 0.0015575 -0.0191415
 0.0020025 -0.0313468
 0.0024475 -0.0457679
 0.0028925 -0.0616035
 0.0033375 -0.0779741
 0.0037825 -0.0940336
 0.0042275  -0.109054
 0.0046725  -0.122477
 0.0051175  -0.133925
 0.0055625  -0.143199
 0.0060075  -0.150245
 0.0064525  -0.155129
 0.0068975  -0.157997
 0.0073476  -0.159062
0.00781612  -0.158468
0.00831203  -0.156245
0.00883694  -0.152455
0.00939255  -0.147218
0.00998065  -0.140702
 0.0106031  -0.133113
  0.011262  -0.124683
 0.0119594  -0.115659
 0.0126977  -0.106283
  0.013479 -0.0967849
 0.0143061 -0.0873722
 0.0151815 -0.0782215
 0.0161082 -0.0694756
  0.017089 -0.0612423
 0.0181271 -0.0535959
  0.019226 -0.0465797
 0.0203891 -0.0402098
 0.0216203 -0.0344808
 0.0229234 -0.0293713
 0.0243028 -0.0248484
 0.0257628 -0.0208713
 0.0273082 -0.0173959
  0.028944 -0.0143774
 0.0306754 -0.0117706
 0.0325081 -0.00953042
 0.0344479 -0.00761271
 0.0365012 -0.00597626
 0.0386746 -0.00458552
  0.040975 -0.00341182
   0.04341 -0.00242886
 0.0459873 -0.00160917
 0.0487154 -0.000926423
  0.051603 -0.000360065
 0.0546595 0.000104914
 0.0578947 0.000482824
 0.0613191 0.000792943
 0.0649437 0.00105026
 0.0687803 0.00126207
 0.0728413 0.00143439
 0.0771397 0.00157361
 0.0816895 0.00168627
 0.0865054 0.00178162
 0.0916029  0.0018637
 0.0969985 0.00193211
   0.10271 0.00198998
  0.108755 0.00203479
  0.115153 0.00206851
  0.121926  0.0021021
  0.129095 0.00213785
  0.136683 0.00216896
  0.144715 0.00219122
  0.153216 0.00220993
  0.162214 0.00222533
  0.171739 0.00223991
  0.181821 0.00225252
  0.192492 0.00226677
  0.203788 0.00228732
  0.215744 0.00230193
  0.228399 0.00231799
  0.241794 0.00232473
  0.255972 0.00234305
   0.27098 0.00234658
  0.286865 0.00236717
  0.304824 0.00237804
  0.324407 0.00236782
  0.343989 0.00237691
  0.363571 0.00238381
  0.383154 0.00239573
  0.402736 0.00239638
  0.422319 0.00239837
  0.441901 0.00240237
  0.461484 0.00240942
  0.481066 0.00241094
  0.500648 0.00241556
  0.520231 0.00241615
  0.539813 0.00241831
  0.559396 0.00241447
  0.578978 0.00241076
   0.59856 0.00241382
  0.618143 0.00241433
  0.637725 0.00240909
  0.657308 0.00240732
   0.67689 0.00240875
  0.696473 0.00240755
  0.716055 0.00240579
  0.735637 0.00240868
   0.75522 0.00241123
  0.774802 0.00241315
  0.794385 0.00241679
  0.813967 0.00241435
  0.833549 0.00241267
  0.853132 0.00240827
  0.872714 0.00240514
  0.892297 0.00240308
  0.911879 0.00239853
  0.931462 0.00239598
  0.951044 0.00239378
  0.970626 0.00238908
  0.990209 0.00238887
   1.00979 0.00238631
   1.02937 0.00238761
   1.04896 0.00238732
   1.06854 0.00238495
   1.08812 0.00238198
    1.1077 0.00238315
   1.12729  0.0023825
   1.14687  0.0023834
   1.16645 0.00238774
   1.18603 0.00238494
   1.20562 0.00238298
    1.2252 0.00238582
   1.24478  0.0023888
   1.26436 0.00239185
   1.28395 0.00239265
   1.30353 0.00238975
   1.32311 0.00238746
   1.34269 0.00238795
   1.36228 0.00238853
   1.38186 0.00238835
   1.40144 0.00239114
   1.42102 0.00238823
   1.44061 0.00238399
   1.46019 0.00238551
   1.47977 0.00238849
   1.49935 0.00238713
   1.51894 0.00238483
   1.53852 0.00238309
    1.5581 0.00237948
   1.57768 0.00238241
   1.59727 0.00237998
   1.61685 0.00237745
   1.63643 0.00237673
   1.65601 0.00238668
    1.6756 0.00238375
   1.69518 0.00239286
   1.71314 0.00238451
   1.72902 0.00237204
   1.74403 0.00238336
   1.75821 0.00236739
    1.7716 0.00236056
   1.78426 0.00234783
   1.79621 0.00234258
   1.80751 0.00233524
   1.81818 0.00231844
   1.82826 0.00229479
   1.83779 0.00227052
   1.84679 0.00224935
   1.85529 0.00222374
   1.86332 0.00220045
   1.87091 0.00217514
   1.87808 0.00214642
   1.88485 0.00211427
   1.89125 0.00207407
   1.89729  0.0020221
     1.903 0.00196378
    1.9084 0.00189722
    1.9135 0.00182113
   1.91831 0.00172871
   1.92286 0.00161044
   1.92716 0.00146755
   1.93122  0.0012954
   1.93506 0.00108856
   1.93868 0.000838506
   1.94211 0.000528566
   1.94534 0.000142801
    1.9484 -0.000327343
   1.95129 -0.00089286
   1.95401 -0.00157469
   1.95659 -0.00239471
   1.95903 -0.00337442
   1.96133 -0.00454107
    1.9635 -0.00592673
   1.96555 -0.00756596
   1.96749 -0.00949213
   1.96933 -0.0117403
   1.97106 -0.0143505
   1.97269 -0.0173669
   1.97424 -0.0208357
    1.9757 -0.0248042
   1.97708 -0.0293172
   1.97838 -0.0344146
   1.97961 -0.0401277
   1.98077 -0.0464756
   1.98187 -0.0534605
   1.98291 -0.0610634
   1.98389 -0.0692386
   1.98482 -0.0779101
   1.98569 -0.0869684
   1.98652 -0.0962696
    1.9873  -0.105636
   1.98804  -0.114862
   1.98874  -0.123719
    1.9894  -0.131965
   1.99002  -0.139361
   1.99061  -0.145677
   1.99116  -0.150715
   1.99169  -0.154311
   1.99218  -0.156355
   1.99265  -0.156789
    1.9931  -0.155588
   1.99355  -0.152609
   1.99399  -0.147652
   1.99444  -0.140578
   1.99488  -0.131332
   1.99533  -0.119976
   1.99577  -0.106714
   1.99622 -0.0919218
   1.99666 -0.0761496
   1.99711 -0.0601094
   1.99755 -0.0446238
     1.998 -0.0305438
   1.99844 -0.0186419
   1.99889 -0.00950316
   1.99933 -0.00344399
   1.99978 -0.000487361
         2 -0.000487361
