         0 1.50095e-15
 0.0002225 1.61908e-19
 0.0006675 -3.474e-19
 0.0011125 -1.04159e-18
 0.0015575 6.39326e-19
 0.0020025 -1.84882e-18
 0.0024475 -4.84246e-19
 0.0028925 5.47624e-18
 0.0033375 -6.52516e-20
 0.0037825 -1.76283e-18
 0.0042275 -1.90019e-18
 0.0046725 4.07656e-18
 0.0051175 -6.7735e-18
 0.0055625 -1.18992e-18
 0.0060075 -1.01257e-18
 0.0064525 -1.19577e-18
 0.0068975 -2.66636e-18
 0.0073476 -8.23933e-18
0.00781612 -1.17284e-17
0.00831203 1.6003e-18
0.00883694 1.14398e-18
0.00939255 -1.88289e-18
0.00998065 1.72275e-19
 0.0106031 -2.23065e-17
  0.011262 -6.02846e-18
 0.0119594 -1.88314e-17
 0.0126977 9.4025e-19
  0.013479 4.30362e-18
 0.0143061 -3.54656e-18
 0.0151815 -6.7253e-17
 0.0161082 -7.65376e-18
  0.017089 -3.86126e-18
 0.0181271 -1.236e-17
  0.019226  2.572e-18
 0.0203891 8.65427e-18
 0.0216203 -1.23431e-17
 0.0229234 -2.18287e-18
 0.0243028 2.08083e-17
 0.0257628 4.88257e-18
 0.0273082 -1.64921e-17
  0.028944 -7.93857e-19
 0.0306754 -2.64578e-18
 0.0325081 -2.00313e-17
 0.0344479 -5.51005e-18
 0.0365012 3.60564e-18
 0.0386746 6.85192e-18
  0.040975 1.23847e-17
   0.04341 -7.11245e-18
 0.0459873 1.16797e-17
 0.0487154 1.43593e-17
  0.051603 -1.14723e-17
 0.0546595 5.76129e-17
 0.0578947 1.19915e-17
 0.0613191 -1.31903e-17
 0.0649437 4.63334e-18
 0.0687803 -1.37397e-18
 0.0728413 1.0882e-18
 0.0771397 3.86022e-19
 0.0816895 -1.14426e-17
 0.0865054 -3.69107e-18
 0.0916029 -1.92989e-18
 0.0969985 2.21995e-17
   0.10271 -5.10644e-18
  0.108755 -7.9811e-19
  0.115153 3.78178e-18
  0.121926 -1.51239e-17
  0.129095 8.09942e-18
  0.136683 -1.7064e-17
  0.144715 -2.61529e-17
  0.153216 3.71601e-18
  0.162214 4.23272e-18
  0.171739 -2.19215e-18
  0.181821 -1.38782e-18
  0.192492 7.75889e-17
  0.203788 1.43528e-18
  0.215744 2.9605e-18
  0.228399 -1.08197e-17
  0.241794 5.01641e-18
  0.255972 -3.09831e-17
   0.27098 -5.96623e-18
  0.286865 4.15043e-18
  0.304824 -1.19928e-17
  0.324407 2.24303e-17
  0.343989 -1.58719e-17
  0.363571 -2.62895e-17
  0.383154 -7.71291e-18
  0.402736 4.43431e-18
  0.422319 1.84492e-17
  0.441901 -1.69332e-17
  0.461484 -1.30053e-17
  0.481066 -5.74948e-18
  0.500648 1.03449e-17
  0.520231 2.69527e-17
  0.539813 -6.4251e-18
  0.559396 -1.28875e-17
  0.578978 -2.49724e-17
   0.59856 1.94753e-17
  0.618143 -2.57899e-18
  0.637725 -4.35977e-18
  0.657308 -3.48629e-17
   0.67689 -1.22094e-17
  0.696473 -2.45438e-17
  0.716055 -1.41721e-17
  0.735637 1.53825e-17
   0.75522 1.89258e-17
  0.774802 5.19965e-17
  0.794385 2.08018e-18
  0.813967 9.6655e-18
  0.833549 -3.05037e-17
  0.853132 -1.67403e-17
  0.872714 -2.72896e-17
  0.892297 -1.39017e-17
  0.911879 5.43755e-18
  0.931462 1.82796e-17
  0.951044 2.12426e-17
  0.970626 2.35703e-17
  0.990209 2.52098e-17
   1.00979 2.75421e-17
   1.02937 -1.14683e-17
   1.04896 -1.76036e-17
   1.06854 8.37344e-19
   1.08812 -1.85542e-17
    1.1077 -1.31988e-17
   1.12729 -2.15332e-18
   1.14687 -1.57544e-17
   1.16645 -9.80579e-18
   1.18603 -1.97934e-17
   1.20562 -1.20903e-17
    1.2252 1.28286e-18
   1.24478 -9.06878e-18
   1.26436 -9.6648e-18
   1.28395 -7.02894e-18
   1.30353 -1.70352e-17
   1.32311 4.84039e-18
   1.34269 -1.89706e-17
   1.36228 2.91823e-18
   1.38186 1.04642e-17
   1.40144 -3.32103e-17
   1.42102 1.98895e-17
   1.44061 6.12445e-18
   1.46019 -3.29176e-17
   1.47977 1.55137e-17
   1.49935 -1.42351e-17
   1.51894 -2.75116e-17
   1.53852 7.13507e-18
    1.5581 -2.51564e-18
   1.57768 -7.79187e-18
   1.59727 -1.0934e-17
   1.61685 -5.56922e-18
   1.63643 -4.66252e-18
   1.65601 -1.29807e-17
    1.6756 1.43309e-17
   1.69518 2.42794e-18
   1.71314 5.72946e-18
   1.72902 -7.60717e-18
   1.74403 -1.98599e-18
   1.75821 1.09594e-17
    1.7716 1.07971e-17
   1.78426 -2.2374e-17
   1.79621 -5.98594e-18
   1.80751 -4.97132e-18
   1.81818 -2.56739e-18
   1.82826 -1.30413e-17
   1.83779 -8.57565e-18
   1.84679 -7.50557e-19
   1.85529 -1.03997e-17
   1.86332 1.85945e-17
   1.87091 -7.36332e-18
   1.87808 3.42382e-17
   1.88485 1.49346e-17
   1.89125 5.96159e-18
   1.89729 -4.36684e-17
     1.903 2.15061e-17
    1.9084 6.66498e-18
    1.9135 1.05973e-17
   1.91831 3.97351e-18
   1.92286 -3.29941e-18
   1.92716 8.3435e-18
   1.93122 6.77552e-18
   1.93506 -7.06031e-18
   1.93868 5.6684e-18
   1.94211 -5.93221e-20
   1.94534 6.23779e-17
    1.9484 -2.65455e-19
   1.95129 8.50889e-18
   1.95401 -1.52583e-17
   1.95659 -4.22003e-18
   1.95903 5.40259e-18
   1.96133 1.97182e-18
    1.9635 -4.82121e-18
   1.96555 -1.04693e-17
   1.96749 -1.56089e-17
   1.96933 1.33127e-17
   1.97106 -1.58151e-18
   1.97269 5.76542e-18
   1.97424 3.72956e-18
    1.9757 1.75649e-18
   1.97708 7.64583e-18
   1.97838 1.18957e-17
   1.97961 -6.34541e-18
   1.98077 -1.00148e-18
   1.98187 -1.31283e-18
   1.98291 7.57538e-18
   1.98389 -8.95247e-19
   1.98482 -2.88921e-18
   1.98569 8.15853e-18
   1.98652 2.94552e-18
    1.9873 -3.59554e-18
   1.98804 7.17456e-18
   1.98874 3.04353e-18
    1.9894 -8.76688e-18
   1.99002 1.14246e-17
   1.99061 2.03819e-18
   1.99116 8.65125e-18
   1.99169 -1.27234e-17
   1.99218 7.81246e-18
   1.99265 5.09557e-18
    1.9931 1.26523e-17
   1.99355 -1.17491e-17
   1.99399 5.3592e-18
   1.99444 7.67294e-18
   1.99488 1.92908e-18
   1.99533 -2.38443e-18
   1.99577 1.1748e-18
   1.99622 -1.19521e-18
   1.99666 2.12899e-18
   1.99711 -4.74371e-18
   1.99755 -3.71678e-19
     1.998 -5.30465e-19
   1.99844 2.30156e-18
   1.99889 4.3848e-19
   1.99933 6.47551e-20
   1.99978 -3.54552e-20
         2 -7.36395e-20
