         0 1.29777e-15
 0.0002225 -2.06141e-20
 0.0006675 -1.35693e-19
 0.0011125 4.54847e-20
 0.0015575 3.02119e-19
 0.0020025 1.3043e-19
 0.0024475 2.11236e-19
 0.0028925 -3.49262e-19
 0.0033375 2.49171e-19
 0.0037825 -3.19343e-19
 0.0042275 -7.27557e-20
 0.0046725 -3.4396e-19
 0.0051175 4.33289e-19
 0.0055625 -1.48552e-19
 0.0060075 -9.34017e-20
 0.0064525 -2.42798e-19
 0.0068975 -8.48812e-19
 0.0073476 -1.13002e-18
0.00781612 7.84131e-19
0.00831203 -2.44524e-19
0.00883694 -9.19703e-19
0.00939255 -3.74511e-19
0.00998065 8.20091e-20
 0.0106031 8.67588e-19
  0.011262 2.82727e-19
 0.0119594 4.14499e-19
 0.0126977 -1.39475e-19
  0.013479 7.39839e-19
 0.0143061 -3.50425e-20
 0.0151815 5.86112e-19
 0.0161082 3.39163e-19
  0.017089 3.60701e-19
 0.0181271 -2.11707e-19
  0.019226 5.01921e-20
 0.0203891 3.42142e-20
 0.0216203 -1.9768e-19
 0.0229234 -1.34871e-19
 0.0243028 3.07294e-19
 0.0257628 5.19368e-19
 0.0273082 -4.19407e-19
  0.028944 7.61206e-19
 0.0306754 -8.86845e-19
 0.0325081 -5.4164e-21
 0.0344479 -3.02164e-19
 0.0365012 -4.0477e-19
 0.0386746 -2.74714e-19
  0.040975 2.41899e-19
   0.04341 -8.91517e-19
 0.0459873 -1.34776e-19
 0.0487154 8.55457e-20
  0.051603 -4.811e-19
 0.0546595 2.27927e-19
 0.0578947 -1.00185e-18
 0.0613191 -9.06759e-20
 0.0649437 1.86602e-19
 0.0687803 2.98894e-19
 0.0728413 8.27812e-19
 0.0771397 -2.5202e-19
 0.0816895 2.04259e-19
 0.0865054 5.51537e-19
 0.0916029 -4.58387e-20
 0.0969985 2.99326e-19
   0.10271 -1.14724e-19
  0.108755 -4.42153e-19
  0.115153 -6.77414e-19
  0.121926 -1.03534e-19
  0.129095 2.76998e-19
  0.136683 -3.65272e-19
  0.144715 -3.52062e-19
  0.153216 1.68726e-19
  0.162214 -1.48098e-19
  0.171739 3.32358e-19
  0.181821 7.28095e-19
  0.192492 9.22069e-19
  0.203788 -1.13792e-18
  0.215744 2.15474e-19
  0.228399 -2.66445e-19
  0.241794 -6.26398e-19
  0.255972 4.97006e-19
   0.27098 5.18336e-19
  0.286865 -6.15128e-20
  0.304824 4.40051e-19
  0.324407 5.72415e-19
  0.343989 -1.65922e-19
  0.363571 -6.66134e-21
  0.383154 1.32669e-19
  0.402736 -2.09998e-19
  0.422319 -3.64323e-19
  0.441901 -7.57627e-19
  0.461484 -2.59408e-19
  0.481066 7.62452e-20
  0.500648 1.59766e-19
  0.520231 -1.16404e-19
  0.539813 1.21884e-20
  0.559396 2.63708e-19
  0.578978 1.91366e-19
   0.59856 -1.8914e-19
  0.618143 -3.28825e-19
  0.637725 -9.94349e-19
  0.657308 5.88863e-19
   0.67689 -1.58644e-19
  0.696473 6.17985e-20
  0.716055 -3.47666e-20
  0.735637 -1.89389e-19
   0.75522 7.65086e-20
  0.774802 -3.41514e-20
  0.794385 -1.65489e-19
  0.813967 -1.50269e-19
  0.833549 1.31137e-19
  0.853132 -8.00419e-20
  0.872714 2.18476e-19
  0.892297 -7.43189e-20
  0.911879 -4.24958e-19
  0.931462 -6.6261e-21
  0.951044 -2.27363e-19
  0.970626 3.36288e-20
  0.990209 9.40871e-20
   1.00979 1.20136e-21
   1.02937 1.15291e-19
   1.04896 2.94182e-19
   1.06854 2.43147e-19
   1.08812 -7.46862e-20
    1.1077 3.80973e-20
   1.12729 -4.68436e-20
   1.14687 -4.94556e-19
   1.16645 -4.18115e-19
   1.18603 -9.94584e-20
   1.20562 -1.15698e-19
    1.2252 1.17004e-19
   1.24478 1.84422e-19
   1.26436 2.50249e-20
   1.28395 5.49661e-20
   1.30353 -3.7662e-19
   1.32311 -3.68723e-19
   1.34269 -1.93791e-19
   1.36228 -1.21666e-20
   1.38186 -4.36915e-19
   1.40144 9.57967e-19
   1.42102 -1.99367e-19
   1.44061 -1.28531e-19
   1.46019 -3.09924e-19
   1.47977 1.28387e-19
   1.49935 5.90169e-19
   1.51894 -8.44902e-20
   1.53852 1.86092e-19
    1.5581 -2.12352e-19
   1.57768 -4.81449e-19
   1.59727 2.95886e-19
   1.61685 6.12898e-19
   1.63643 -8.43992e-20
   1.65601 1.49126e-19
    1.6756 2.61663e-19
   1.69518 -1.37652e-19
   1.71314 1.47979e-19
   1.72902 -2.01607e-20
   1.74403 -4.04519e-19
   1.75821 -2.05411e-19
    1.7716 -1.01528e-19
   1.78426 -1.16655e-18
   1.79621 -4.85885e-19
   1.80751 -1.60054e-18
   1.81818 -8.87229e-20
   1.82826 -5.71263e-19
   1.83779 -2.59787e-19
   1.84679 -5.5001e-20
   1.85529 9.07553e-20
   1.86332 1.59862e-19
   1.87091 -3.38471e-19
   1.87808 -1.21248e-19
   1.88485 2.9377e-20
   1.89125 -2.65715e-19
   1.89729 5.60254e-19
     1.903 8.87338e-19
    1.9084 -3.23613e-19
    1.9135 -5.80131e-19
   1.91831 -2.28194e-19
   1.92286 1.84768e-19
   1.92716 6.80031e-19
   1.93122 3.41255e-20
   1.93506 2.24579e-19
   1.93868 -6.83378e-20
   1.94211 1.6949e-19
   1.94534 -2.87732e-19
    1.9484 -3.77893e-19
   1.95129 -1.28852e-19
   1.95401 6.13972e-19
   1.95659 -5.23618e-19
   1.95903 -6.74602e-19
   1.96133 5.2658e-19
    1.9635 -1.104e-19
   1.96555 1.95574e-20
   1.96749 5.01871e-19
   1.96933 -3.71741e-19
   1.97106 -6.25684e-19
   1.97269 4.49224e-19
   1.97424 5.39217e-19
    1.9757 6.18641e-19
   1.97708 6.81014e-20
   1.97838 9.22528e-19
   1.97961 2.52656e-19
   1.98077 -2.59985e-19
   1.98187 2.82863e-19
   1.98291 6.71566e-19
   1.98389 4.8236e-19
   1.98482 -2.75821e-19
   1.98569 4.42947e-19
   1.98652 1.02975e-19
    1.9873 -6.23997e-19
   1.98804 -4.85871e-19
   1.98874 -1.57499e-18
    1.9894 9.73467e-19
   1.99002 -6.73777e-21
   1.99061 -1.0404e-18
   1.99116 -1.48826e-18
   1.99169 3.03104e-18
   1.99218 -1.04331e-18
   1.99265 -1.42749e-18
    1.9931 -3.95591e-19
   1.99355 2.59046e-19
   1.99399 -5.55195e-19
   1.99444 -4.09287e-19
   1.99488 8.64789e-19
   1.99533 4.8471e-19
   1.99577 2.53377e-19
   1.99622 -1.05345e-18
   1.99666 5.56189e-19
   1.99711 1.29852e-19
   1.99755 -2.35971e-19
     1.998 -1.08184e-18
   1.99844 6.66229e-20
   1.99889 7.20802e-19
   1.99933 -1.74291e-19
   1.99978 -1.53664e-19
         2 -1.34352e-19
