         0 -2.9498e-17
 0.0002225 -6.47536e-22
 0.0006675 -5.91797e-21
 0.0011125 -7.28938e-20
 0.0015575 -1.25333e-19
 0.0020025 1.49039e-19
 0.0024475 1.03362e-19
 0.0028925 2.46446e-19
 0.0033375 -4.69831e-19
 0.0037825 -7.10579e-19
 0.0042275 1.1138e-18
 0.0046725 6.09383e-19
 0.0051175 -5.93998e-19
 0.0055625 1.44033e-19
 0.0060075 5.71705e-19
 0.0064525 -9.32299e-19
 0.0068975 1.97264e-18
 0.0073476 3.0581e-20
0.00781612 3.78744e-18
0.00831203 2.88343e-18
0.00883694 2.08257e-18
0.00939255 4.44788e-18
0.00998065 3.67194e-18
 0.0106031 -3.29211e-19
  0.011262 2.31239e-18
 0.0119594 1.35937e-18
 0.0126977 6.38305e-18
  0.013479 6.42163e-18
 0.0143061 -1.11729e-19
 0.0151815 2.18466e-18
 0.0161082 9.16029e-18
  0.017089 1.03181e-17
 0.0181271 1.36197e-17
  0.019226 9.36775e-18
 0.0203891 8.51588e-18
 0.0216203 8.06071e-18
 0.0229234 1.07923e-17
 0.0243028 9.65537e-18
 0.0257628 6.00003e-18
 0.0273082 6.15967e-18
  0.028944 1.48131e-17
 0.0306754 2.21131e-17
 0.0325081 1.70857e-17
 0.0344479 1.72829e-17
 0.0365012 1.50064e-17
 0.0386746 1.98886e-17
  0.040975 1.22952e-17
   0.04341 1.0208e-17
 0.0459873 1.26827e-17
 0.0487154 1.09628e-17
  0.051603 1.07984e-17
 0.0546595 6.40543e-18
 0.0578947 9.40012e-18
 0.0613191  7.792e-18
 0.0649437 7.63774e-18
 0.0687803 1.01955e-17
 0.0728413 6.04444e-18
 0.0771397 -2.76303e-18
 0.0816895 2.65135e-19
 0.0865054 4.3832e-18
 0.0916029 4.08179e-18
 0.0969985 8.29734e-18
   0.10271 5.37747e-18
  0.108755 -5.27682e-18
  0.115153 -5.42216e-18
  0.121926 -1.50026e-18
  0.129095 2.73019e-18
  0.136683 -1.76638e-18
  0.144715 4.8333e-18
  0.153216 1.4418e-18
  0.162214 5.7219e-19
  0.171739 4.24287e-18
  0.181821 2.00067e-18
  0.192492 -1.21837e-17
  0.203788 -9.66484e-19
  0.215744 -8.88769e-18
  0.228399 -6.22393e-18
  0.241794 -6.87211e-20
  0.255972 -8.25854e-18
   0.27098 -6.88813e-18
  0.286865 7.55001e-18
  0.304824 5.39109e-20
  0.324407 -1.59796e-18
  0.343989 -1.10542e-18
  0.363571 -3.85087e-18
  0.383154 -1.19898e-18
  0.402736 -7.05993e-18
  0.422319 3.86572e-18
  0.441901 3.77441e-18
  0.461484 -1.92061e-18
  0.481066 1.9643e-18
  0.500648 -1.51268e-18
  0.520231 -5.47846e-18
  0.539813 -2.18139e-18
  0.559396 -6.95527e-18
  0.578978 5.15137e-18
   0.59856 -2.706e-18
  0.618143 3.18018e-20
  0.637725 2.79071e-19
  0.657308 -7.05623e-18
   0.67689 1.50446e-18
  0.696473 7.95804e-18
  0.716055 4.89772e-18
  0.735637 3.80366e-18
   0.75522 3.97525e-19
  0.774802 6.63083e-18
  0.794385 3.29168e-18
  0.813967 -1.04865e-17
  0.833549 4.42945e-18
  0.853132 2.9332e-18
  0.872714 4.11598e-18
  0.892297 -4.65761e-18
  0.911879 1.23876e-17
  0.931462 2.83736e-18
  0.951044 3.95575e-18
  0.970626 1.04313e-17
  0.990209 -1.26035e-17
   1.00979 7.4639e-19
   1.02937 1.05212e-17
   1.04896 1.18916e-17
   1.06854  1.487e-17
   1.08812 6.15497e-18
    1.1077 1.43643e-17
   1.12729 -2.10404e-18
   1.14687 2.24929e-18
   1.16645 -1.36439e-18
   1.18603 -7.23466e-18
   1.20562 -8.39491e-18
    1.2252 -1.29689e-17
   1.24478 -8.05307e-18
   1.26436 -1.10309e-17
   1.28395 -1.16543e-18
   1.30353 5.7542e-18
   1.32311 3.08782e-18
   1.34269 4.05745e-19
   1.36228 7.62448e-18
   1.38186 6.14052e-18
   1.40144 1.7349e-18
   1.42102 3.34869e-18
   1.44061 6.22356e-18
   1.46019 6.80609e-18
   1.47977 7.22033e-18
   1.49935 2.66884e-18
   1.51894 6.17625e-18
   1.53852 2.41508e-18
    1.5581 -1.82433e-18
   1.57768 -3.94944e-19
   1.59727 4.23958e-18
   1.61685 4.16483e-18
   1.63643 -2.825e-20
   1.65601 3.94245e-18
    1.6756 1.30174e-18
   1.69518 5.5939e-18
   1.71314 8.41965e-18
   1.72902 1.04213e-17
   1.74403 5.52702e-18
   1.75821 -1.58217e-18
    1.7716 -6.17063e-18
   1.78426 -1.82762e-18
   1.79621 9.97436e-19
   1.80751 3.37184e-18
   1.81818 2.19061e-19
   1.82826 1.49234e-18
   1.83779 1.16238e-18
   1.84679 3.2232e-18
   1.85529 3.21153e-18
   1.86332 -5.26471e-19
   1.87091 1.24839e-18
   1.87808 4.74008e-18
   1.88485 -1.46296e-18
   1.89125 9.04988e-19
   1.89729 4.89057e-18
     1.903 4.35164e-19
    1.9084 -1.39153e-18
    1.9135 4.96464e-18
   1.91831 7.67693e-18
   1.92286 5.26456e-18
   1.92716 6.67645e-18
   1.93122 2.92912e-18
   1.93506 5.48234e-18
   1.93868 6.47881e-18
   1.94211 -3.69071e-19
   1.94534 6.67764e-18
    1.9484 -3.34985e-18
   1.95129 -1.26096e-17
   1.95401 2.92648e-19
   1.95659 1.83312e-18
   1.95903  6.999e-18
   1.96133 -8.40142e-18
    1.9635 2.15727e-18
   1.96555 -1.88771e-18
   1.96749 -2.67422e-18
   1.96933 -1.66296e-18
   1.97106 -6.64696e-18
   1.97269 -3.66195e-18
   1.97424 2.99396e-18
    1.9757 -1.14495e-17
   1.97708 -6.68242e-18
   1.97838 -3.16623e-18
   1.97961 3.89824e-18
   1.98077 1.07453e-17
   1.98187 -1.44807e-17
   1.98291 -1.88773e-19
   1.98389 -1.62677e-17
   1.98482 4.84824e-18
   1.98569 -1.15403e-17
   1.98652 -1.13645e-18
    1.9873 -2.65476e-18
   1.98804 4.26889e-18
   1.98874 -2.02793e-17
    1.9894 8.6798e-18
   1.99002 -2.59295e-18
   1.99061 -6.91234e-18
   1.99116 -5.07667e-18
   1.99169 1.1544e-17
   1.99218 -3.23527e-18
   1.99265 -9.79899e-18
    1.9931 -5.49317e-18
   1.99355 6.08143e-18
   1.99399 -1.54747e-18
   1.99444 -3.91413e-18
   1.99488 3.6298e-18
   1.99533 6.49436e-18
   1.99577 -6.47101e-18
   1.99622 4.40723e-18
   1.99666 -3.17898e-18
   1.99711 -3.19638e-18
   1.99755 1.03236e-18
     1.998 8.35394e-19
   1.99844 -5.98205e-19
   1.99889 -1.74868e-19
   1.99933 -8.81436e-20
   1.99978 6.49238e-20
         2 7.18419e-20
