         0 -2.30969e-16
 0.0002225 -1.19323e-18
 0.0006675 -4.62395e-18
 0.0011125 -8.68462e-18
 0.0015575 -1.94696e-17
 0.0020025 -8.07436e-18
 0.0024475 -1.00294e-17
 0.0028925 -3.33118e-17
 0.0033375 -2.27357e-17
 0.0037825 -2.3628e-17
 0.0042275 -4.03803e-17
 0.0046725 -3.57082e-17
 0.0051175 4.41862e-18
 0.0055625 -1.41167e-17
 0.0060075 -1.4241e-17
 0.0064525 -1.66593e-17
 0.0068975 -8.45832e-17
 0.0073476 -3.65459e-17
0.00781612 -5.0592e-17
0.00831203 -5.96761e-17
0.00883694 -3.02458e-17
0.00939255 -6.59145e-17
0.00998065 -1.16426e-17
 0.0106031 -2.56933e-17
  0.011262 -3.26389e-17
 0.0119594 -1.4508e-17
 0.0126977 -4.31837e-17
  0.013479 -3.4517e-17
 0.0143061 4.03011e-17
 0.0151815 -4.68468e-17
 0.0161082 -2.256e-17
  0.017089 -7.06399e-17
 0.0181271 -5.43413e-17
  0.019226 -8.10581e-18
 0.0203891 -5.78525e-17
 0.0216203 -1.47757e-18
 0.0229234 -2.19242e-17
 0.0243028 -7.28017e-17
 0.0257628 -1.93596e-17
 0.0273082 7.58524e-17
  0.028944 -7.02039e-17
 0.0306754 -2.95833e-17
 0.0325081 -5.12952e-17
 0.0344479 -5.16348e-17
 0.0365012 -1.22573e-17
 0.0386746 -6.41547e-17
  0.040975 5.39347e-17
   0.04341 -5.77947e-17
 0.0459873 2.40278e-17
 0.0487154 9.56542e-17
  0.051603 6.91336e-18
 0.0546595 -6.50344e-17
 0.0578947 4.26367e-17
 0.0613191 8.53788e-17
 0.0649437 -8.72972e-18
 0.0687803 -2.35958e-17
 0.0728413 -2.2762e-18
 0.0771397 6.68882e-18
 0.0816895 4.51661e-17
 0.0865054 2.33464e-17
 0.0916029 -4.4177e-18
 0.0969985 4.95219e-17
   0.10271 2.99874e-17
  0.108755 3.99012e-17
  0.115153 1.31155e-16
  0.121926 1.22931e-17
  0.129095 -4.27997e-17
  0.136683 -2.2133e-17
  0.144715 -1.21155e-16
  0.153216 8.23092e-19
  0.162214 3.95422e-17
  0.171739 -1.26009e-17
  0.181821 3.85482e-18
  0.192492 4.12744e-17
  0.203788 4.70877e-17
  0.215744 -4.3732e-18
  0.228399 1.10547e-17
  0.241794 -5.24747e-17
  0.255972 1.39607e-17
   0.27098 -7.96428e-17
  0.286865 2.6289e-17
  0.304824 -1.06642e-16
  0.324407 -5.83233e-17
  0.343989 7.35832e-17
  0.363571 2.01387e-16
  0.383154 -1.04789e-18
  0.402736 6.19243e-17
  0.422319 5.12671e-18
  0.441901 -2.45661e-17
  0.461484 -6.88502e-19
  0.481066 1.63531e-17
  0.500648 -3.34835e-17
  0.520231 3.30937e-17
  0.539813 -3.27151e-17
  0.559396 9.95648e-18
  0.578978 -4.74698e-17
   0.59856 -7.90514e-17
  0.618143 5.27304e-17
  0.637725 -3.67245e-17
  0.657308 5.05685e-17
   0.67689 -8.38768e-17
  0.696473 3.7117e-17
  0.716055 1.58914e-17
  0.735637 8.29646e-17
   0.75522 -6.26124e-17
  0.774802 -1.02172e-16
  0.794385 3.21736e-17
  0.813967 5.37511e-17
  0.833549 3.04736e-17
  0.853132 -8.38374e-17
  0.872714 5.63598e-17
  0.892297 -2.16927e-17
  0.911879 -1.88917e-17
  0.931462 2.48305e-17
  0.951044 -6.50841e-17
  0.970626 -7.44487e-17
  0.990209 -5.53374e-17
   1.00979 -6.73807e-17
   1.02937 5.41595e-18
   1.04896 5.65286e-19
   1.06854 -4.45784e-17
   1.08812 5.21314e-17
    1.1077 -2.06248e-17
   1.12729 -9.55106e-18
   1.14687 -4.60814e-17
   1.16645 3.04803e-17
   1.18603 -3.67983e-17
   1.20562 2.80947e-17
    1.2252 3.44768e-17
   1.24478 -1.21563e-17
   1.26436 4.84682e-17
   1.28395 -3.17972e-17
   1.30353 7.61453e-17
   1.32311 1.02454e-17
   1.34269 -3.82039e-17
   1.36228 1.42749e-16
   1.38186 6.89864e-18
   1.40144 5.71843e-17
   1.42102 4.9222e-18
   1.44061 5.80825e-17
   1.46019 -9.92616e-17
   1.47977 -3.27559e-17
   1.49935 2.25927e-17
   1.51894 1.99469e-17
   1.53852 2.47518e-17
    1.5581 4.40881e-17
   1.57768 1.96591e-17
   1.59727 -2.69765e-17
   1.61685 5.71218e-17
   1.63643 5.12363e-18
   1.65601 -3.97886e-17
    1.6756 5.79321e-17
   1.69518 -2.56136e-17
   1.71314 -4.64541e-17
   1.72902 4.03908e-18
   1.74403 -3.35711e-17
   1.75821 -3.23369e-17
    1.7716 -5.32534e-17
   1.78426 -6.26836e-17
   1.79621 -5.52645e-17
   1.80751 -3.03593e-18
   1.81818 2.07316e-17
   1.82826 -1.56017e-17
   1.83779 7.81618e-18
   1.84679 4.05948e-17
   1.85529 3.94826e-17
   1.86332 6.10513e-17
   1.87091 4.02781e-17
   1.87808 3.06046e-17
   1.88485 -2.36142e-17
   1.89125 -8.39538e-17
   1.89729 -1.10871e-17
     1.903 1.20802e-17
    1.9084 1.79493e-17
    1.9135 -1.76958e-17
   1.91831 5.5508e-17
   1.92286 -1.49274e-17
   1.92716 -5.49148e-17
   1.93122  8.316e-18
   1.93506 -1.96198e-17
   1.93868 4.82963e-17
   1.94211 -4.51234e-17
   1.94534 9.06023e-17
    1.9484 -1.51019e-17
   1.95129 3.85511e-17
   1.95401 -4.56919e-18
   1.95659 3.77871e-17
   1.95903 -2.65404e-17
   1.96133 -3.7271e-17
    1.9635 -4.17652e-17
   1.96555 -1.91309e-18
   1.96749 3.31375e-17
   1.96933 -4.82745e-17
   1.97106 1.13188e-17
   1.97269 4.95511e-17
   1.97424 -1.44076e-17
    1.9757 -7.15708e-17
   1.97708 -4.62678e-17
   1.97838 2.78568e-17
   1.97961 5.61324e-17
   1.98077 -7.27124e-17
   1.98187 -4.93152e-17
   1.98291 4.33502e-17
   1.98389 1.48283e-17
   1.98482 7.03524e-17
   1.98569 -7.6879e-17
   1.98652 2.17155e-17
    1.9873 -1.20158e-17
   1.98804 1.27144e-17
   1.98874 -3.29797e-17
    1.9894 -7.23005e-18
   1.99002 1.01293e-17
   1.99061 -4.72417e-17
   1.99116 3.46164e-17
   1.99169 1.72333e-16
   1.99218 -6.31693e-17
   1.99265 -6.56852e-17
    1.9931 -3.87662e-18
   1.99355 5.9442e-18
   1.99399 5.32274e-17
   1.99444 5.69669e-17
   1.99488 1.17886e-16
   1.99533 -3.37211e-17
   1.99577 -1.09329e-16
   1.99622 -4.65233e-17
   1.99666 4.02305e-17
   1.99711 4.3298e-18
   1.99755 1.06816e-17
     1.998 6.73297e-17
   1.99844 1.60118e-17
   1.99889 -2.37207e-17
   1.99933 5.66771e-18
   1.99978 2.58676e-17
         2 2.69595e-17
