         0 9.95241e-16
 0.0002225 2.60522e-19
 0.0006675 2.21407e-18
 0.0011125 5.1448e-18
 0.0015575 2.78637e-18
 0.0020025 2.68866e-18
 0.0024475 6.62211e-18
 0.0028925 5.99125e-18
 0.0033375 5.93591e-18
 0.0037825 6.07687e-19
 0.0042275 3.3519e-18
 0.0046725 4.66019e-18
 0.0051175 1.58093e-18
 0.0055625 3.89996e-18
 0.0060075 8.34733e-18
 0.0064525 -2.57572e-19
 0.0068975 8.41445e-19
 0.0073476 1.96828e-18
0.00781612 9.45763e-19
0.00831203 4.68456e-18
0.00883694 3.07332e-19
0.00939255 -1.16623e-17
0.00998065 -5.7348e-18
 0.0106031 4.65126e-18
  0.011262 3.46861e-18
 0.0119594 2.69528e-19
 0.0126977 -4.63047e-18
  0.013479 -1.02778e-18
 0.0143061 -6.62821e-18
 0.0151815 -6.27685e-18
 0.0161082 -3.81552e-19
  0.017089 4.10865e-18
 0.0181271 -3.14388e-18
  0.019226 2.68236e-19
 0.0203891 -1.08003e-17
 0.0216203 7.30665e-18
 0.0229234 1.04278e-17
 0.0243028 1.11755e-19
 0.0257628 -1.68259e-17
 0.0273082 4.39362e-19
  0.028944 5.31599e-18
 0.0306754 6.14856e-18
 0.0325081 -1.19356e-17
 0.0344479 -1.64854e-17
 0.0365012 -3.88941e-18
 0.0386746 -9.92947e-18
  0.040975 -2.40832e-19
   0.04341 -1.54646e-17
 0.0459873 -8.30213e-18
 0.0487154 -1.32917e-17
  0.051603 -4.08062e-18
 0.0546595 -7.35032e-18
 0.0578947 -2.12384e-17
 0.0613191 5.53425e-18
 0.0649437 -1.92969e-17
 0.0687803 -3.36293e-18
 0.0728413 -1.77436e-17
 0.0771397 -1.09194e-17
 0.0816895 -2.05593e-17
 0.0865054 -1.37293e-17
 0.0916029 -1.31696e-17
 0.0969985 -4.53033e-18
   0.10271 -9.31558e-18
  0.108755 2.29639e-18
  0.115153 -5.42334e-18
  0.121926 -3.38916e-18
  0.129095 -4.68407e-18
  0.136683 -3.61839e-18
  0.144715 5.42234e-18
  0.153216 -5.17319e-18
  0.162214 2.10806e-18
  0.171739 1.06591e-17
  0.181821 -2.63993e-17
  0.192492 -3.80376e-18
  0.203788 2.6978e-18
  0.215744 -5.66595e-18
  0.228399 1.13432e-17
  0.241794 -2.02364e-17
  0.255972 4.78992e-18
   0.27098 3.7119e-18
  0.286865 -8.03485e-18
  0.304824 1.7449e-17
  0.324407 1.83024e-17
  0.343989 -4.00531e-18
  0.363571 -1.93038e-18
  0.383154 6.26636e-18
  0.402736 2.63914e-19
  0.422319 -3.63942e-19
  0.441901 3.38512e-18
  0.461484 -8.07698e-19
  0.481066 3.94016e-18
  0.500648 1.10482e-17
  0.520231 8.95317e-19
  0.539813 -1.07088e-17
  0.559396 -5.2584e-18
  0.578978 6.1852e-18
   0.59856 3.52348e-18
  0.618143 6.19793e-18
  0.637725 9.44812e-18
  0.657308 -8.50683e-19
   0.67689 3.03918e-18
  0.696473 2.80634e-18
  0.716055 -1.90796e-18
  0.735637 3.47571e-18
   0.75522 -1.7663e-18
  0.774802 4.92221e-18
  0.794385 5.31762e-18
  0.813967 -4.97246e-18
  0.833549 4.79849e-18
  0.853132 -4.51769e-18
  0.872714 5.4074e-18
  0.892297 1.75184e-17
  0.911879 -1.91386e-18
  0.931462 -3.6843e-19
  0.951044 4.16275e-18
  0.970626 -1.4618e-18
  0.990209 8.61933e-19
   1.00979 2.66741e-18
   1.02937 -1.17474e-17
   1.04896 2.27234e-18
   1.06854 -1.65793e-18
   1.08812 -1.02262e-17
    1.1077 4.18036e-18
   1.12729 3.2366e-18
   1.14687 -1.17959e-18
   1.16645 -8.77011e-19
   1.18603 -7.85418e-18
   1.20562 1.9866e-18
    1.2252 -6.52724e-19
   1.24478 -5.83861e-18
   1.26436 6.76125e-18
   1.28395 5.89825e-18
   1.30353 -5.76302e-18
   1.32311 2.26875e-18
   1.34269 4.03807e-18
   1.36228 -6.77931e-18
   1.38186 -2.80101e-18
   1.40144 -2.98432e-18
   1.42102 1.7041e-18
   1.44061 -7.64395e-19
   1.46019 -7.99185e-19
   1.47977 -1.20707e-18
   1.49935 7.18646e-18
   1.51894 5.8709e-18
   1.53852 2.17156e-18
    1.5581 2.22985e-17
   1.57768 7.24261e-18
   1.59727 -3.73322e-18
   1.61685 -4.31156e-18
   1.63643 -4.06463e-18
   1.65601 -1.65278e-17
    1.6756 -8.03563e-18
   1.69518 -1.58124e-17
   1.71314 3.62178e-18
   1.72902 2.45665e-19
   1.74403 -1.92646e-17
   1.75821 7.89001e-18
    1.7716 2.95227e-18
   1.78426 -3.54406e-18
   1.79621 8.16302e-18
   1.80751 5.73138e-18
   1.81818 4.94746e-18
   1.82826 -4.07523e-18
   1.83779 -1.88891e-17
   1.84679 1.45487e-17
   1.85529 1.03011e-17
   1.86332 5.6339e-18
   1.87091 5.0143e-18
   1.87808  1.545e-18
   1.88485 2.24897e-18
   1.89125 2.21857e-18
   1.89729 2.08835e-17
     1.903 2.50894e-17
    1.9084 1.18418e-17
    1.9135 -2.73287e-18
   1.91831 -8.73795e-18
   1.92286 9.05931e-18
   1.92716 8.67272e-18
   1.93122 5.96273e-18
   1.93506 3.60436e-18
   1.93868 2.41995e-17
   1.94211 3.1471e-18
   1.94534 1.33151e-18
    1.9484 1.62924e-17
   1.95129 -5.68206e-18
   1.95401 2.17512e-17
   1.95659 -1.52027e-17
   1.95903 5.45831e-19
   1.96133 4.56238e-18
    1.9635 -6.00287e-18
   1.96555 1.46678e-17
   1.96749 -9.79534e-18
   1.96933 7.1263e-20
   1.97106 -6.91892e-18
   1.97269 -1.32901e-17
   1.97424 2.55876e-17
    1.9757 -2.23413e-17
   1.97708 3.2741e-17
   1.97838 -9.71658e-18
   1.97961 -7.47072e-18
   1.98077 -3.21545e-18
   1.98187 3.94761e-18
   1.98291 -1.41541e-17
   1.98389 8.04586e-18
   1.98482 -4.97115e-18
   1.98569 -8.71568e-18
   1.98652 9.28251e-20
    1.9873 3.84153e-17
   1.98804 -4.80525e-17
   1.98874 3.85248e-17
    1.9894 -2.02561e-17
   1.99002 9.19046e-18
   1.99061 -3.26517e-18
   1.99116 -3.8867e-18
   1.99169 -2.46168e-17
   1.99218 3.44208e-17
   1.99265 -1.75931e-17
    1.9931 -9.24002e-18
   1.99355 -5.72542e-18
   1.99399 -1.1591e-17
   1.99444 5.23731e-19
   1.99488 -1.46382e-17
   1.99533 -8.97217e-18
   1.99577 -6.9563e-18
   1.99622 7.59096e-19
   1.99666 -1.1028e-18
   1.99711 -2.3084e-18
   1.99755 3.18959e-18
     1.998 -1.96113e-18
   1.99844 -1.67884e-17
   1.99889 1.53773e-18
   1.99933 4.64025e-18
   1.99978 7.12383e-18
         2 7.28035e-18
