         0 -8.71934e-18
 0.0002225 -3.51882e-22
 0.0006675 -8.00772e-21
 0.0011125 -2.23755e-20
 0.0015575 9.51313e-21
 0.0020025 -3.97265e-21
 0.0024475 -8.25413e-20
 0.0028925 -4.20711e-20
 0.0033375 4.24167e-21
 0.0037825 -8.23178e-20
 0.0042275 -1.12957e-19
 0.0046725 -1.10971e-19
 0.0051175 -1.38141e-19
 0.0055625 -4.21335e-20
 0.0060075 -1.05241e-19
 0.0064525 1.10714e-19
 0.0068975 -8.70446e-20
 0.0073476 -5.27079e-20
0.00781612 1.90088e-19
0.00831203 2.45063e-19
0.00883694 -2.52994e-19
0.00939255 -6.20287e-19
0.00998065 -2.16829e-19
 0.0106031 -1.36999e-19
  0.011262 1.4453e-19
 0.0119594 -1.19485e-19
 0.0126977 -4.98502e-19
  0.013479 -2.70855e-19
 0.0143061 -1.0061e-19
 0.0151815 -1.09244e-19
 0.0161082 2.22186e-19
  0.017089 -9.99634e-20
 0.0181271 -1.44095e-19
  0.019226 7.44543e-20
 0.0203891 7.09898e-20
 0.0216203 -4.57035e-20
 0.0229234 1.71927e-19
 0.0243028 -3.04617e-20
 0.0257628 -2.19334e-20
 0.0273082 2.23998e-19
  0.028944 -1.71907e-19
 0.0306754 9.86451e-20
 0.0325081 2.02296e-19
 0.0344479 3.14689e-19
 0.0365012 1.31966e-19
 0.0386746 3.23522e-19
  0.040975 -1.71192e-19
   0.04341 4.10108e-20
 0.0459873 3.0199e-19
 0.0487154 -1.6909e-19
  0.051603 -1.21997e-19
 0.0546595 3.57102e-19
 0.0578947 -2.51751e-19
 0.0613191 -4.16768e-19
 0.0649437 2.15707e-19
 0.0687803 7.22756e-20
 0.0728413 1.41605e-19
 0.0771397 -3.36552e-19
 0.0816895 -3.06919e-19
 0.0865054 8.81153e-20
 0.0916029 1.73559e-20
 0.0969985 1.10929e-19
   0.10271 4.2105e-20
  0.108755 5.39041e-20
  0.115153 5.80945e-20
  0.121926 -3.60282e-20
  0.129095 4.92499e-22
  0.136683 3.01048e-20
  0.144715 -4.18441e-21
  0.153216 4.15293e-20
  0.162214 1.59999e-19
  0.171739 -4.25289e-20
  0.181821 8.04545e-20
  0.192492 -1.07886e-20
  0.203788 2.12136e-20
  0.215744 -1.29597e-20
  0.228399 -1.56732e-19
  0.241794 -8.11285e-20
  0.255972 -1.558e-19
   0.27098 -9.28839e-20
  0.286865 -4.71211e-20
  0.304824 5.41767e-20
  0.324407 -5.82432e-20
  0.343989  9.718e-20
  0.363571 -1.55994e-19
  0.383154 4.50113e-21
  0.402736 -6.96557e-20
  0.422319 4.90858e-20
  0.441901 -1.64291e-20
  0.461484 1.70797e-20
  0.481066 4.33209e-20
  0.500648 1.74604e-21
  0.520231 1.83954e-20
  0.539813 1.09235e-20
  0.559396 -7.8506e-20
  0.578978 4.79637e-20
   0.59856  7.885e-21
  0.618143 5.43803e-20
  0.637725 -3.68415e-20
  0.657308 4.49392e-20
   0.67689 3.43587e-21
  0.696473 -6.17852e-20
  0.716055 6.18957e-21
  0.735637 -2.40912e-20
   0.75522 2.18968e-20
  0.774802 -1.17645e-20
  0.794385 -2.67611e-20
  0.813967 -9.44645e-21
  0.833549 1.57411e-20
  0.853132 -4.98122e-20
  0.872714 6.27308e-20
  0.892297 3.51858e-20
  0.911879 1.45276e-20
  0.931462 6.73947e-21
  0.951044 5.7314e-21
  0.970626 -3.39006e-21
  0.990209 2.9595e-21
   1.00979 -1.47585e-20
   1.02937 -8.06128e-21
   1.04896 2.67029e-20
   1.06854 6.37236e-21
   1.08812 4.37231e-20
    1.1077 -2.8667e-20
   1.12729 2.51955e-20
   1.14687 -5.14176e-21
   1.16645 -4.17435e-22
   1.18603 1.11336e-20
   1.20562 -3.6005e-21
    1.2252 2.63647e-20
   1.24478 3.02589e-20
   1.26436 -2.48773e-20
   1.28395 1.65904e-20
   1.30353 2.41612e-20
   1.32311 -3.11497e-20
   1.34269 3.06547e-20
   1.36228 1.08996e-19
   1.38186 8.90454e-20
   1.40144 -8.1654e-20
   1.42102 7.83069e-20
   1.44061 -1.51363e-19
   1.46019 1.48247e-19
   1.47977 -1.08536e-19
   1.49935 1.58709e-20
   1.51894 3.50758e-20
   1.53852 -1.20783e-19
    1.5581 -6.56316e-20
   1.57768 -1.46705e-19
   1.59727  7.059e-20
   1.61685 6.71947e-20
   1.63643 1.82391e-20
   1.65601 -3.28191e-20
    1.6756 1.24072e-19
   1.69518 9.14857e-21
   1.71314 1.21488e-19
   1.72902  7.317e-20
   1.74403 1.28719e-20
   1.75821 -1.48152e-19
    1.7716 2.17264e-19
   1.78426 -4.62418e-20
   1.79621 1.37701e-19
   1.80751 -2.0998e-19
   1.81818 -5.62012e-20
   1.82826 4.99411e-20
   1.83779 1.10685e-19
   1.84679 3.5905e-20
   1.85529 4.83734e-20
   1.86332 6.32232e-20
   1.87091 2.42768e-19
   1.87808 2.77483e-19
   1.88485 -3.41057e-20
   1.89125 -3.99984e-20
   1.89729 -1.72421e-19
     1.903 4.04487e-19
    1.9084 6.0075e-20
    1.9135 -5.78065e-20
   1.91831 -2.39798e-20
   1.92286 1.70999e-19
   1.92716 -8.51142e-20
   1.93122 -9.72524e-20
   1.93506 -1.86758e-19
   1.93868 -6.074e-20
   1.94211 1.86701e-19
   1.94534 -2.34465e-19
    1.9484 -9.4256e-20
   1.95129 7.11769e-20
   1.95401 -3.55548e-19
   1.95659 -2.93336e-19
   1.95903 -2.83129e-20
   1.96133 -8.00862e-21
    1.9635 -9.06797e-20
   1.96555 -1.76902e-19
   1.96749 3.24731e-19
   1.96933 -6.00681e-19
   1.97106 -1.82478e-19
   1.97269 -1.41139e-20
   1.97424 -1.13179e-19
    1.9757 5.18222e-21
   1.97708 3.45956e-19
   1.97838 3.8145e-19
   1.97961 7.23111e-19
   1.98077 -9.83164e-19
   1.98187 7.04221e-19
   1.98291 2.97909e-19
   1.98389 -2.59021e-19
   1.98482 -6.56891e-19
   1.98569 -4.56333e-20
   1.98652 -1.05197e-18
    1.9873 2.69262e-21
   1.98804 1.56227e-19
   1.98874 -3.43033e-19
    1.9894 -7.06109e-19
   1.99002 -5.80043e-19
   1.99061 1.00835e-18
   1.99116 -1.14674e-18
   1.99169 1.01795e-18
   1.99218 7.18925e-20
   1.99265 1.16734e-19
    1.9931 3.81111e-19
   1.99355 -2.0514e-19
   1.99399 -4.08335e-19
   1.99444 1.89772e-19
   1.99488 2.70794e-19
   1.99533 -3.34455e-19
   1.99577 6.13239e-19
   1.99622 -4.27001e-19
   1.99666 -7.56123e-20
   1.99711 3.11729e-19
   1.99755 -3.19055e-19
     1.998 1.4563e-19
   1.99844 -2.59123e-20
   1.99889 -3.79672e-21
   1.99933 -1.02575e-20
   1.99978 1.04509e-20
         2 1.0752e-20
