         0 0.000314806
 0.0002225 0.000314806
 0.0006675 0.000283782
 0.0011125 0.00012501
 0.0015575 -4.48218e-05
 0.0020025 -0.00011219
 0.0024475 -0.000127844
 0.0028925 -0.000126583
 0.0033375 -0.000115937
 0.0037825 -9.95478e-05
 0.0042275 -8.13715e-05
 0.0046725 -6.42294e-05
 0.0051175 -4.96932e-05
 0.0055625 -3.75095e-05
 0.0060075 -2.28716e-05
 0.0064525 1.06571e-06
 0.0068975 1.85381e-05
 0.0073476 -2.00464e-06
0.00781612 -4.47377e-05
0.00831203 -7.1253e-05
0.00883694 -8.19623e-05
0.00939255 -9.09165e-05
0.00998065 -0.000101675
 0.0106031 -0.000112947
  0.011262 -0.000123417
 0.0119594 -0.000132321
 0.0126977 -0.000139028
  0.013479 -0.000142975
 0.0143061 -0.000143795
 0.0151815 -0.00014138
 0.0161082 -0.000135717
  0.017089 -0.000126941
 0.0181271 -0.000115411
  0.019226 -0.000101607
 0.0203891 -8.61011e-05
 0.0216203 -6.93567e-05
 0.0229234 -5.18875e-05
 0.0243028 -3.38155e-05
 0.0257628 -1.4321e-05
 0.0273082 7.72005e-06
  0.028944 3.1382e-05
 0.0306754 5.22276e-05
 0.0325081 6.72297e-05
 0.0344479 7.58784e-05
 0.0365012 7.56611e-05
 0.0386746 6.77139e-05
  0.040975 5.69053e-05
   0.04341 4.37052e-05
 0.0459873 2.49947e-05
 0.0487154 4.88619e-06
  0.051603 -1.41189e-05
 0.0546595 -3.71857e-05
 0.0578947 -6.16253e-05
 0.0613191 -8.37928e-05
 0.0649437 -9.68986e-05
 0.0687803 -0.000101299
 0.0728413 -0.000100939
 0.0771397 -9.19075e-05
 0.0816895 -7.78611e-05
 0.0865054 -6.20371e-05
 0.0916029 -4.14404e-05
 0.0969985 -4.06872e-05
   0.10271 -4.96784e-05
  0.108755 -4.42309e-05
  0.115153 -1.93165e-05
  0.121926 -1.03317e-05
  0.129095 2.43248e-05
  0.136683 1.89597e-05
  0.144715 -7.45507e-06
  0.153216 2.56156e-05
  0.162214 -1.08142e-05
  0.171739 1.83847e-05
  0.181821 -2.35341e-05
  0.192492 7.44745e-05
  0.203788 -6.53286e-05
  0.215744 0.00010094
  0.228399 -9.32928e-05
  0.241794 0.000169981
  0.255972 -0.000219348
   0.27098 8.40147e-06
  0.286865 0.000696275
  0.304824 -0.000692349
  0.324407 0.000162593
  0.343989 0.000170906
  0.363571 -0.000114464
  0.383154 0.000121142
  0.402736 -6.26656e-05
  0.422319 3.45423e-05
  0.441901 -1.5275e-05
  0.461484 3.21401e-05
  0.481066 -3.54721e-05
  0.500648 4.09753e-05
  0.520231 -4.09718e-05
  0.539813 4.52282e-05
  0.559396 -3.07799e-05
  0.578978 1.14833e-05
   0.59856 9.77912e-06
  0.618143 2.16421e-06
  0.637725 -1.27635e-05
  0.657308 2.84184e-06
   0.67689 1.31635e-05
  0.696473 1.55862e-05
  0.716055 -2.5306e-05
  0.735637 -4.23285e-07
   0.75522 1.8626e-05
  0.774802 -1.17851e-05
  0.794385 1.58711e-05
  0.813967 7.17091e-06
  0.833549 -8.80982e-07
  0.853132 -7.69151e-06
  0.872714 1.32426e-06
  0.892297 1.20079e-05
  0.911879 3.68525e-06
  0.931462 -3.58227e-06
  0.951044 3.42684e-06
  0.970626 -9.32135e-07
  0.990209 2.0779e-05
   1.00979 2.06625e-07
   1.02937 -3.57407e-06
   1.04896 3.85267e-06
   1.06854 2.01727e-05
   1.08812 4.4901e-06
    1.1077 -1.05739e-05
   1.12729 9.5324e-06
   1.14687 5.09045e-07
   1.16645 3.6067e-06
   1.18603 -9.68088e-06
   1.20562 -1.60231e-06
    1.2252 1.14934e-05
   1.24478 -6.59605e-06
   1.26436 2.29112e-05
   1.28395 1.50356e-06
   1.30353 3.60915e-06
   1.32311 6.31936e-06
   1.34269 -1.42798e-05
   1.36228 -8.20278e-06
   1.38186 2.1861e-05
   1.40144 -1.08831e-05
   1.42102 1.75143e-05
   1.44061 -2.10925e-05
   1.46019 1.35885e-05
   1.47977 -5.86622e-06
   1.49935 2.48613e-05
   1.51894 -4.65824e-05
   1.53852 6.57931e-05
    1.5581 -6.82763e-05
   1.57768 7.73169e-05
   1.59727 -6.74292e-05
   1.61685 0.000129988
   1.63643 -0.000160041
   1.65601 0.00018545
    1.6756 0.000214283
   1.69518 -0.00072448
   1.71314 0.000693375
   1.72902 -2.65944e-06
   1.74403 -0.000214455
   1.75821 0.000153814
    1.7716 -6.14961e-05
   1.78426 7.37736e-05
   1.79621 -5.77827e-05
   1.80751 8.52326e-05
   1.81818 4.88143e-06
   1.82826 6.32676e-06
   1.83779 -2.45162e-05
   1.84679 1.37241e-05
   1.85529 1.0177e-05
   1.86332 1.47362e-05
   1.87091 -4.05242e-06
   1.87808 -9.66916e-06
   1.88485 -6.09882e-06
   1.89125 -1.6685e-05
   1.89729 -2.76455e-05
     1.903 -5.29564e-05
    1.9084 -8.0803e-05
    1.9135 -7.55517e-05
   1.91831 -6.88701e-05
   1.92286 -8.96655e-05
   1.92716 -9.82483e-05
   1.93122 -9.457e-05
   1.93506 -8.77331e-05
   1.93868 -7.03912e-05
   1.94211 -5.23784e-05
   1.94534 -3.92354e-05
    1.9484 -1.711e-05
   1.95129 8.02304e-06
   1.95401 3.01532e-05
   1.95659 5.20507e-05
   1.95903 6.67943e-05
   1.96133 7.16901e-05
    1.9635 6.85241e-05
   1.96555 6.05494e-05
   1.96749 5.05044e-05
   1.96933 3.79448e-05
   1.97106 2.31208e-05
   1.97269 7.20492e-06
   1.97424 -1.09618e-05
    1.9757 -3.16841e-05
   1.97708 -5.19657e-05
   1.97838 -6.98518e-05
   1.97961 -8.59663e-05
   1.98077 -0.000100998
   1.98187 -0.000114591
   1.98291 -0.000126083
   1.98389 -0.000134876
   1.98482 -0.000140489
   1.98569 -0.000142694
   1.98652 -0.000141543
    1.9873 -0.000137277
   1.98804 -0.000130343
   1.98874 -0.000121351
    1.9894 -0.000110924
   1.99002 -9.97857e-05
   1.99061 -8.91921e-05
   1.99116 -8.03693e-05
   1.99169 -6.97644e-05
   1.99218 -4.35881e-05
   1.99265 -1.69962e-06
    1.9931 1.81294e-05
   1.99355 7.25917e-07
   1.99399 -2.28098e-05
   1.99444 -3.71456e-05
   1.99488 -4.90634e-05
   1.99533 -6.32596e-05
   1.99577 -7.99538e-05
   1.99622 -9.75864e-05
   1.99666 -0.000113387
   1.99711 -0.00012349
   1.99755 -0.000124355
     1.998 -0.000108659
   1.99844 -4.24996e-05
   1.99889 0.000123372
   1.99933 0.000277787
   1.99978 0.000307283
         2 0.000307283
