         0 1.58054e-15
 0.0002225 2.5797e-20
 0.0006675 1.22392e-19
 0.0011125 -6.70232e-20
 0.0015575 3.06233e-19
 0.0020025 2.63422e-19
 0.0024475 3.09129e-19
 0.0028925 -1.66081e-19
 0.0033375 2.91172e-19
 0.0037825 1.29302e-19
 0.0042275 -2.82496e-19
 0.0046725 -1.23388e-19
 0.0051175 1.76932e-19
 0.0055625 2.75081e-19
 0.0060075 1.93048e-19
 0.0064525 2.25776e-19
 0.0068975 6.1156e-20
 0.0073476 3.02202e-19
0.00781612 1.06571e-19
0.00831203 3.60583e-19
0.00883694 2.43023e-19
0.00939255 1.97334e-19
0.00998065 7.93191e-20
 0.0106031 -2.20301e-19
  0.011262 3.79658e-19
 0.0119594 3.01205e-19
 0.0126977 3.15115e-19
  0.013479 1.19405e-19
 0.0143061 1.77514e-19
 0.0151815 2.59722e-19
 0.0161082 -4.35047e-19
  0.017089 -1.20769e-20
 0.0181271 2.77342e-19
  0.019226 3.54141e-19
 0.0203891 4.11762e-19
 0.0216203 2.09228e-19
 0.0229234 -2.79365e-19
 0.0243028 5.88417e-19
 0.0257628 -1.31363e-19
 0.0273082 1.86011e-20
  0.028944 4.37258e-19
 0.0306754 2.59087e-19
 0.0325081 3.25407e-20
 0.0344479 3.81724e-19
 0.0365012 1.33847e-19
 0.0386746 -1.01765e-19
  0.040975 -1.52992e-20
   0.04341 4.83993e-19
 0.0459873 -3.64695e-19
 0.0487154 -4.94121e-19
  0.051603 1.28763e-19
 0.0546595 6.98197e-19
 0.0578947 8.25712e-20
 0.0613191 2.50242e-19
 0.0649437 5.54495e-19
 0.0687803 2.59176e-19
 0.0728413 2.4141e-20
 0.0771397 3.84495e-19
 0.0816895 1.86979e-20
 0.0865054 4.40555e-19
 0.0916029 -1.17562e-20
 0.0969985 -4.9218e-20
   0.10271 8.46736e-20
  0.108755 -6.77521e-19
  0.115153 -6.40896e-19
  0.121926 9.1809e-20
  0.129095 -4.45533e-19
  0.136683 -8.67995e-20
  0.144715 -3.28959e-19
  0.153216 -1.03268e-19
  0.162214 -5.45187e-19
  0.171739 -2.16943e-19
  0.181821 -2.29816e-19
  0.192492 4.47673e-19
  0.203788 7.59679e-20
  0.215744 7.33127e-20
  0.228399 2.42698e-19
  0.241794 -2.07974e-19
  0.255972 3.57901e-19
   0.27098 -5.46899e-21
  0.286865 2.90257e-19
  0.304824 -1.65464e-19
  0.324407 3.33571e-19
  0.343989 5.15904e-20
  0.363571 -3.48507e-20
  0.383154 -1.96834e-19
  0.402736 -1.77033e-19
  0.422319 -2.03252e-19
  0.441901 4.91124e-19
  0.461484 1.96746e-19
  0.481066 6.68541e-20
  0.500648 8.45542e-21
  0.520231 -5.14428e-19
  0.539813 5.76411e-19
  0.559396 -2.13783e-19
  0.578978 1.6309e-19
   0.59856 4.00067e-19
  0.618143 -6.92602e-19
  0.637725 -3.36992e-19
  0.657308 -1.75793e-19
   0.67689 1.54766e-19
  0.696473 2.57951e-19
  0.716055 -7.46982e-19
  0.735637 -9.32124e-21
   0.75522 5.79287e-19
  0.774802 -2.44563e-19
  0.794385 -7.49747e-19
  0.813967 4.13746e-19
  0.833549 2.85133e-19
  0.853132 -5.90457e-19
  0.872714 -1.12675e-19
  0.892297 2.32667e-19
  0.911879 1.50553e-19
  0.931462 6.21867e-19
  0.951044 -1.49761e-19
  0.970626 2.7421e-19
  0.990209 -1.38592e-19
   1.00979 -6.14739e-21
   1.02937 -3.45139e-19
   1.04896 -3.89684e-20
   1.06854 3.23824e-21
   1.08812 3.26756e-19
    1.1077 2.14117e-19
   1.12729 -1.5753e-19
   1.14687 2.34147e-19
   1.16645 2.29828e-19
   1.18603 7.17683e-21
   1.20562 -5.33566e-20
    1.2252 3.11473e-19
   1.24478 -3.15513e-19
   1.26436 3.6707e-19
   1.28395 2.4627e-21
   1.30353 1.07745e-19
   1.32311 5.42932e-19
   1.34269 1.60386e-19
   1.36228 7.71144e-20
   1.38186 5.23515e-19
   1.40144 7.80748e-20
   1.42102 -8.7164e-20
   1.44061 7.96794e-21
   1.46019 2.18801e-19
   1.47977 3.36297e-19
   1.49935 -1.31645e-19
   1.51894 -5.03583e-20
   1.53852 -2.44879e-19
    1.5581 -6.08593e-20
   1.57768 2.27523e-19
   1.59727 2.80541e-19
   1.61685 2.35402e-19
   1.63643 -2.05713e-19
   1.65601 -1.62447e-20
    1.6756 -1.69128e-19
   1.69518 -1.77096e-19
   1.71314 2.17382e-19
   1.72902 -3.88411e-20
   1.74403 -4.20102e-19
   1.75821 -4.16466e-20
    1.7716 2.06321e-19
   1.78426 2.95603e-19
   1.79621 8.55304e-20
   1.80751 3.28608e-19
   1.81818 1.88841e-20
   1.82826 6.78936e-20
   1.83779 7.01023e-20
   1.84679 -1.36555e-19
   1.85529 -2.61147e-19
   1.86332 -2.54038e-19
   1.87091 1.91375e-21
   1.87808 -4.66712e-20
   1.88485 -2.18399e-20
   1.89125 4.35456e-19
   1.89729 1.21783e-19
     1.903 1.14035e-19
    1.9084 7.27895e-20
    1.9135 2.21803e-19
   1.91831 -2.38426e-20
   1.92286 -7.84105e-19
   1.92716 -3.98657e-19
   1.93122 -6.21518e-19
   1.93506 -6.62816e-19
   1.93868 -5.83376e-19
   1.94211 -4.83935e-19
   1.94534 -1.40113e-18
    1.9484 -7.08172e-19
   1.95129 -1.22604e-18
   1.95401 -5.56745e-19
   1.95659 -4.4771e-19
   1.95903 4.22806e-19
   1.96133 -9.64354e-20
    1.9635 -6.0892e-20
   1.96555 3.61538e-19
   1.96749 5.35318e-19
   1.96933 -6.27726e-20
   1.97106 -3.81841e-19
   1.97269 -3.29931e-19
   1.97424 -1.79175e-19
    1.9757 7.67008e-20
   1.97708 5.69806e-19
   1.97838 -8.95794e-19
   1.97961 3.39708e-19
   1.98077 -2.86344e-19
   1.98187 -9.84405e-19
   1.98291 1.70427e-18
   1.98389 -4.29837e-19
   1.98482 -7.01866e-19
   1.98569 5.23659e-20
   1.98652 -3.86863e-19
    1.9873 1.33039e-18
   1.98804 -3.24009e-19
   1.98874 9.00121e-19
    1.9894 -1.14098e-18
   1.99002 1.33141e-19
   1.99061 -2.27014e-19
   1.99116 6.67229e-20
   1.99169 1.96522e-18
   1.99218 -1.89986e-18
   1.99265 1.51298e-18
    1.9931 -1.94579e-18
   1.99355 1.26294e-18
   1.99399 -8.87406e-19
   1.99444 8.28792e-19
   1.99488 7.09629e-19
   1.99533 1.08534e-18
   1.99577 -1.28698e-18
   1.99622 7.92849e-19
   1.99666 -2.20191e-20
   1.99711 5.81946e-20
   1.99755 1.10384e-18
     1.998 1.86743e-19
   1.99844 -1.41271e-18
   1.99889 8.70148e-20
   1.99933 2.8341e-19
   1.99978 1.27634e-18
         2 1.48495e-18
