         0 8.13284e-16
 0.0002225 -6.43512e-20
 0.0006675 4.90863e-20
 0.0011125 3.72446e-20
 0.0015575 1.92999e-20
 0.0020025 -5.35809e-20
 0.0024475 -3.27674e-20
 0.0028925 1.10519e-20
 0.0033375 -8.33419e-20
 0.0037825 -3.15959e-21
 0.0042275 3.29607e-20
 0.0046725 1.80626e-20
 0.0051175 6.17591e-20
 0.0055625 -7.76138e-21
 0.0060075 9.36313e-20
 0.0064525 -8.15616e-21
 0.0068975 1.68748e-20
 0.0073476 -2.3871e-20
0.00781612 5.49196e-21
0.00831203 6.46491e-21
0.00883694 1.94156e-20
0.00939255 -9.34401e-21
0.00998065 -3.85021e-21
 0.0106031 3.64675e-20
  0.011262 2.09476e-21
 0.0119594 -2.99058e-20
 0.0126977 -1.05337e-21
  0.013479 3.32854e-20
 0.0143061 -1.71847e-20
 0.0151815 1.38273e-19
 0.0161082 -5.0371e-20
  0.017089 5.32602e-20
 0.0181271 -1.33281e-20
  0.019226 2.40672e-20
 0.0203891 -1.11274e-19
 0.0216203 4.0727e-20
 0.0229234 2.98147e-20
 0.0243028 -5.68108e-21
 0.0257628 9.45522e-22
 0.0273082 1.90786e-20
  0.028944 4.25283e-20
 0.0306754 1.16521e-21
 0.0325081 5.09998e-20
 0.0344479 3.90612e-20
 0.0365012 -3.60575e-20
 0.0386746 3.9115e-20
  0.040975 -4.58321e-20
   0.04341 2.28717e-20
 0.0459873 -4.01742e-20
 0.0487154 -6.41547e-20
  0.051603 7.44224e-20
 0.0546595 -2.09929e-19
 0.0578947 -2.82591e-20
 0.0613191 6.31824e-20
 0.0649437 -4.01708e-20
 0.0687803 7.61679e-21
 0.0728413 -3.2292e-20
 0.0771397 1.83454e-20
 0.0816895 -4.33534e-20
 0.0865054 -4.49163e-20
 0.0916029 -1.07865e-20
 0.0969985 -1.40761e-19
   0.10271 -9.04557e-21
  0.108755 2.14432e-20
  0.115153 -2.40195e-20
  0.121926 2.80059e-20
  0.129095 -3.33451e-20
  0.136683 2.78196e-20
  0.144715 1.12674e-19
  0.153216 3.86932e-20
  0.162214 -6.28576e-20
  0.171739 6.80999e-20
  0.181821 -1.96407e-20
  0.192492 -2.35611e-19
  0.203788 -1.11334e-20
  0.215744 -1.79672e-19
  0.228399 6.60218e-21
  0.241794 1.24829e-19
  0.255972 1.72477e-20
   0.27098 -1.16983e-20
  0.286865 -1.58755e-20
  0.304824 7.32351e-20
  0.324407 -6.46334e-20
  0.343989 2.07674e-20
  0.363571 1.10972e-19
  0.383154 -2.28728e-20
  0.402736 4.95859e-20
  0.422319 1.60383e-20
  0.441901 8.21995e-20
  0.461484 3.49909e-20
  0.481066 1.21409e-19
  0.500648 -7.02034e-20
  0.520231 -7.94919e-20
  0.539813 -1.20036e-20
  0.559396 -2.55317e-22
  0.578978 1.01519e-20
   0.59856 -7.74681e-20
  0.618143 -1.07464e-20
  0.637725 4.87034e-20
  0.657308 3.4069e-20
   0.67689 2.30462e-20
  0.696473 4.50021e-20
  0.716055 4.45738e-20
  0.735637 -1.32075e-20
   0.75522 -1.13388e-20
  0.774802 -4.63994e-20
  0.794385 8.06415e-21
  0.813967 -1.44442e-20
  0.833549 3.15824e-20
  0.853132 2.25121e-20
  0.872714 3.2117e-20
  0.892297 3.68001e-20
  0.911879 -2.18809e-20
  0.931462 -2.74218e-20
  0.951044 -3.03791e-20
  0.970626 -3.95801e-20
  0.990209 1.33313e-20
   1.00979 -3.3394e-21
   1.02937 -2.18197e-20
   1.04896 3.19935e-20
   1.06854 1.4187e-20
   1.08812 2.49058e-20
    1.1077 2.65077e-20
   1.12729 -1.48485e-20
   1.14687 3.31626e-20
   1.16645 3.54903e-20
   1.18603 3.32402e-20
   1.20562 5.09045e-21
    1.2252 8.81189e-21
   1.24478 -1.75455e-20
   1.26436 -4.76526e-21
   1.28395 1.98303e-20
   1.30353 2.42105e-20
   1.32311 -2.63994e-20
   1.34269 1.50307e-20
   1.36228 -1.71305e-21
   1.38186 -2.7904e-20
   1.40144 7.73308e-20
   1.42102 -1.56949e-20
   1.44061 -5.73592e-20
   1.46019 9.90382e-20
   1.47977 -1.04925e-20
   1.49935 1.21458e-20
   1.51894 7.98981e-20
   1.53852 -3.60407e-20
    1.5581 4.13469e-20
   1.57768 6.83739e-21
   1.59727 1.54789e-20
   1.61685 3.22162e-21
   1.63643 1.64467e-20
   1.65601 4.42421e-20
    1.6756 -8.62335e-20
   1.69518 -2.38004e-21
   1.71314 -3.4944e-20
   1.72902 5.23833e-20
   1.74403 3.9198e-21
   1.75821 -6.37195e-20
    1.7716 -8.68661e-20
   1.78426 5.93104e-20
   1.79621 1.11208e-19
   1.80751 -1.3204e-21
   1.81818 -8.55442e-21
   1.82826 3.7656e-20
   1.83779 3.2756e-20
   1.84679 -2.65106e-20
   1.85529 5.81994e-20
   1.86332 -4.54149e-20
   1.87091 7.22051e-20
   1.87808 -1.43104e-19
   1.88485 2.86082e-20
   1.89125 1.78815e-20
   1.89729 1.19199e-19
     1.903 -7.72886e-20
    1.9084 -5.02889e-20
    1.9135 -4.51926e-20
   1.91831 1.17308e-20
   1.92286 2.0524e-20
   1.92716 1.2149e-20
   1.93122 5.9872e-20
   1.93506 3.99221e-20
   1.93868 -1.62895e-20
   1.94211 5.95123e-20
   1.94534 -2.38648e-19
    1.9484 2.92211e-20
   1.95129 -5.14118e-20
   1.95401 3.63468e-20
   1.95659 -7.48778e-20
   1.95903 6.47479e-21
   1.96133 -8.64296e-20
    1.9635 5.12746e-21
   1.96555 6.81538e-20
   1.96749 1.95464e-20
   1.96933 1.78072e-20
   1.97106 -9.34475e-20
   1.97269 -8.27078e-20
   1.97424 -2.89594e-20
    1.9757 1.10795e-19
   1.97708 -7.00752e-20
   1.97838 -4.27496e-20
   1.97961 8.25215e-20
   1.98077 -6.66913e-20
   1.98187 -1.46252e-21
   1.98291 -5.87671e-20
   1.98389 -1.13246e-19
   1.98482 -2.82421e-21
   1.98569 -2.67454e-20
   1.98652 6.41693e-20
    1.9873 -2.59822e-21
   1.98804 -3.04152e-20
   1.98874 -5.29885e-20
    1.9894 -5.56067e-20
   1.99002 4.56592e-20
   1.99061 -2.05699e-20
   1.99116 9.70833e-20
   1.99169 -1.54079e-19
   1.99218 1.85413e-20
   1.99265 1.26985e-19
    1.9931 -1.01894e-19
   1.99355 4.76263e-20
   1.99399 -1.45179e-19
   1.99444 2.49908e-19
   1.99488 -5.52086e-20
   1.99533 -9.83205e-20
   1.99577 9.77929e-20
   1.99622 -1.29829e-19
   1.99666 1.42329e-19
   1.99711 -1.81284e-19
   1.99755 -1.06641e-19
     1.998 2.11172e-19
   1.99844 -4.34506e-20
   1.99889 -4.5646e-20
   1.99933 -6.08296e-20
   1.99978 -2.3053e-19
         2 -2.72352e-19
