         0   -58.6592
 0.0002225   -58.6592
 0.0006675   -119.383
 0.0011125   -244.052
 0.0015575   -432.193
 0.0020025   -677.116
 0.0024475   -966.517
 0.0028925   -1284.23
 0.0033375   -1612.53
 0.0037825   -1934.39
 0.0042275    -2235.2
 0.0046725   -2503.74
 0.0051175   -2732.49
 0.0055625   -2917.45
 0.0060075   -3057.63
 0.0064525   -3154.35
 0.0068975   -3210.63
 0.0073476   -3230.71
0.00781612   -3217.52
0.00831203   -3171.65
0.00883694   -3094.41
0.00939255   -2988.21
0.00998065   -2856.47
 0.0106031   -2703.36
  0.011262   -2533.57
 0.0119594   -2352.04
 0.0126977   -2163.66
  0.013479   -1973.05
 0.0143061   -1784.35
 0.0151815   -1601.11
 0.0161082   -1426.18
  0.017089    -1261.7
 0.0181271   -1109.14
  0.019226   -969.341
 0.0203891   -842.611
 0.0216203   -728.815
 0.0229234   -627.504
 0.0243028   -537.994
 0.0257628   -459.455
 0.0273082   -390.982
  0.028944   -331.659
 0.0306754   -280.561
 0.0325081   -236.761
 0.0344479   -199.356
 0.0365012   -167.508
 0.0386746   -140.493
  0.040975   -117.728
   0.04341   -98.6768
 0.0459873   -82.7813
 0.0487154    -69.517
  0.051603   -58.4795
 0.0546595   -49.3674
 0.0578947   -41.8927
 0.0613191   -35.6834
 0.0649437   -30.4655
 0.0687803   -26.1064
 0.0728413   -22.4946
 0.0771397   -19.5148
 0.0816895   -17.0478
 0.0865054   -14.9144
 0.0916029   -13.0437
 0.0969985   -11.4471
   0.10271   -10.0687
  0.108755   -8.96026
  0.115153   -8.09041
  0.121926   -7.25933
  0.129095   -6.40656
  0.136683   -5.63375
  0.144715   -5.05258
  0.153216   -4.59113
  0.162214   -4.20146
  0.171739    -3.8142
  0.181821   -3.47206
  0.192492   -3.13593
  0.203788   -2.69697
  0.215744   -2.38809
  0.228399   -2.05812
  0.241794   -1.91696
  0.255972     -1.559
   0.27098   -1.53995
  0.286865   -1.14077
  0.304824  -0.894696
  0.324407   -1.14708
  0.343989   -1.04337
  0.363571  -0.975205
  0.383154  -0.774858
  0.402736  -0.788277
  0.422319  -0.786672
  0.441901  -0.730191
  0.461484  -0.619485
  0.481066  -0.636675
  0.500648  -0.564327
  0.520231  -0.539238
  0.539813  -0.490421
  0.559396  -0.546986
  0.578978  -0.579772
   0.59856  -0.480654
  0.618143   -0.44017
  0.637725  -0.518311
  0.657308  -0.545878
   0.67689  -0.519337
  0.696473  -0.547245
  0.716055  -0.596467
  0.735637  -0.580956
   0.75522  -0.579363
  0.774802  -0.587248
  0.794385  -0.569542
  0.813967  -0.649998
  0.833549  -0.690701
  0.853132  -0.768933
  0.872714  -0.801886
  0.892297   -0.79945
  0.911879  -0.837179
  0.931462  -0.847767
  0.951044  -0.848548
  0.970626  -0.891331
  0.990209  -0.869124
   1.00979  -0.901496
   1.02937  -0.854613
   1.04896  -0.839479
   1.06854  -0.861664
   1.08812  -0.888587
    1.1077  -0.834322
   1.12729  -0.815388
   1.14687  -0.753306
   1.16645  -0.641139
   1.18603  -0.687149
   1.20562  -0.721141
    1.2252  -0.676112
   1.24478  -0.642785
   1.26436  -0.600377
   1.28395  -0.564638
   1.30353   -0.57431
   1.32311  -0.590346
   1.34269  -0.537107
   1.36228  -0.479545
   1.38186   -0.45767
   1.40144  -0.396646
   1.42102  -0.463616
   1.44061  -0.568755
   1.46019  -0.565706
   1.47977  -0.526915
   1.49935  -0.565366
   1.51894  -0.631091
   1.53852  -0.698788
    1.5581  -0.804755
   1.57768  -0.807068
   1.59727  -0.912307
   1.61685   -1.04019
   1.63643   -1.13746
   1.65601   -1.04592
    1.6756   -1.19143
   1.69518   -1.03634
   1.71314    -1.2999
   1.72902    -1.6481
   1.74403   -1.46955
   1.75821   -1.83826
    1.7716   -2.03009
   1.78426   -2.30372
   1.79621   -2.41867
   1.80751   -2.59486
   1.81818   -2.95539
   1.82826   -3.45565
   1.83779    -4.0002
   1.84679   -4.51549
   1.85529   -5.12415
   1.86332   -5.69239
   1.87091   -6.31773
   1.87808   -7.01945
   1.88485    -7.7989
   1.89125   -8.75248
   1.89729   -9.96361
     1.903   -11.3275
    1.9084   -12.8714
    1.9135   -14.6112
   1.91831   -16.6676
   1.92286   -19.2253
   1.92716   -22.2638
   1.93122   -25.8703
   1.93506   -30.1325
   1.93868   -35.2031
   1.94211   -41.3987
   1.94534   -49.0237
    1.9484   -58.2446
   1.95129   -69.2742
   1.95401   -82.5236
   1.95659    -98.428
   1.95903   -117.418
   1.96133   -140.046
    1.9635   -166.963
   1.96555   -198.876
   1.96749   -236.467
   1.96933   -280.457
   1.97106   -331.661
   1.97269   -390.975
   1.97424   -459.346
    1.9757   -537.737
   1.97708   -627.074
   1.97838   -728.174
   1.97961   -841.687
   1.98077   -968.012
   1.98187   -1107.22
   1.98291   -1258.94
   1.98389   -1422.29
   1.98482   -1595.75
   1.98569   -1777.15
   1.98652   -1963.62
    1.9873    -2151.6
   1.98804   -2336.97
   1.98874   -2515.12
    1.9894   -2681.22
   1.99002   -2830.42
   1.99061   -2958.13
   1.99116   -3060.29
   1.99169   -3133.62
   1.99218   -3175.84
   1.99265   -3185.77
    1.9931    -3162.9
   1.99355   -3104.37
   1.99399    -3006.1
   1.99444   -2865.31
   1.99488   -2680.84
   1.99533   -2453.88
   1.99577   -2188.52
   1.99622   -1892.24
   1.99666    -1576.1
   1.99711    -1254.4
   1.99755   -943.687
     1.998   -661.112
   1.99844    -422.26
   1.99889   -238.942
   1.99933   -117.532
   1.99978   -58.4034
         2   -58.4034
