         0 -0.0258143
 0.0002225 -0.0258143
 0.0006675  -0.164124
 0.0011125  -0.428961
 0.0015575  -0.807104
 0.0020025   -1.27639
 0.0024475   -1.80872
 0.0028925   -2.37405
 0.0033375   -2.94426
 0.0037825   -3.49596
 0.0042275   -4.01168
 0.0046725    -4.4797
 0.0051175   -4.89293
 0.0055625    -5.2476
 0.0060075   -5.54212
 0.0064525   -5.77635
 0.0068975    -5.9512
 0.0073476   -6.06974
0.00781612   -6.13402
0.00831203   -6.14082
0.00883694   -6.08609
0.00939255   -5.96758
0.00998065    -5.7853
 0.0106031   -5.54172
  0.011262   -5.24192
 0.0119594   -4.89353
 0.0126977   -4.50685
  0.013479   -4.09455
 0.0143061    -3.6709
 0.0151815   -3.25092
 0.0161082   -2.85076
  0.017089   -2.48674
 0.0181271   -2.17233
  0.019226   -1.91385
 0.0203891    -1.7058
 0.0216203   -1.53252
 0.0229234    -1.3792
 0.0243028   -1.23814
 0.0257628   -1.09922
 0.0273082  -0.946774
  0.028944  -0.774327
 0.0306754  -0.600257
 0.0325081  -0.452824
 0.0344479   -0.34088
 0.0365012  -0.269184
 0.0386746  -0.240311
  0.040975  -0.220969
   0.04341   -0.17161
 0.0459873  -0.100741
 0.0487154 -0.0371528
  0.051603 0.000789568
 0.0546595 0.000932937
 0.0578947  0.0033519
 0.0613191  0.0473265
 0.0649437  0.0857637
 0.0687803   0.106195
 0.0728413   0.126183
 0.0771397   0.128287
 0.0816895  0.0906381
 0.0865054  0.0279127
 0.0916029 -0.0057258
 0.0969985  0.0224254
   0.10271  0.0692595
  0.108755  0.0202808
  0.115153 -0.0485565
  0.121926 -0.0841673
  0.129095 -0.0699904
  0.136683 -0.0165791
  0.144715 -0.0150045
  0.153216 -0.0778723
  0.162214 -0.0438198
  0.171739  0.0110038
  0.181821  0.0115678
  0.192492 -0.0523795
  0.203788 -0.0489034
  0.215744 -0.0630349
  0.228399  -0.160949
  0.241794 -0.0885274
  0.255972  0.0222385
   0.27098  0.0346271
  0.286865  0.0489968
  0.304824  0.0643456
  0.324407  0.0195851
  0.343989 0.00532422
  0.363571    -0.1148
  0.383154  0.0107274
  0.402736   0.149543
  0.422319  0.0278133
  0.441901 -0.0146684
  0.461484 -0.0601722
  0.481066  0.0426909
  0.500648  0.0586931
  0.520231  0.0573576
  0.539813 -0.0342171
  0.559396 -0.0395138
  0.578978  0.0140427
   0.59856   0.101525
  0.618143  0.0671349
  0.637725   0.076274
  0.657308 -0.0730247
   0.67689 -0.0385055
  0.696473  0.0164589
  0.716055 -0.0357761
  0.735637  -0.021828
   0.75522  0.0248483
  0.774802  0.0101202
  0.794385   0.031641
  0.813967  0.0180286
  0.833549 -0.00596511
  0.853132 -0.0338314
  0.872714  0.0201927
  0.892297 -0.0214149
  0.911879 -0.0190563
  0.931462 -0.0543594
  0.951044  -0.014901
  0.970626  0.0429999
  0.990209  0.0122439
   1.00979 0.00780163
   1.02937 -0.0303533
   1.04896   -0.02771
   1.06854 -0.0199157
   1.08812 -0.0110697
    1.1077  0.0153191
   1.12729  0.0381467
   1.14687  0.0496768
   1.16645  0.0408565
   1.18603 -0.0043125
   1.20562 -0.0855821
    1.2252 -0.0690127
   1.24478 -0.00652842
   1.26436 -0.0262554
   1.28395 -0.0144585
   1.30353 -0.0368731
   1.32311 -0.0579918
   1.34269 0.00613298
   1.36228 -0.0143027
   1.38186 -0.00713093
   1.40144 0.00384309
   1.42102 -0.0901748
   1.44061 -0.0185399
   1.46019   0.022363
   1.47977 -0.0133874
   1.49935 -0.00223845
   1.51894  0.0238385
   1.53852 0.00107345
    1.5581 -0.00168218
   1.57768  0.0642177
   1.59727 0.00405074
   1.61685  0.0647063
   1.63643   0.118445
   1.65601 -0.00448633
    1.6756 -0.0500627
   1.69518 -0.0732211
   1.71314 -0.0756734
   1.72902  0.0397868
   1.74403   0.141142
   1.75821 -0.0382061
    1.7716  0.0198833
   1.78426   0.124835
   1.79621  0.0661266
   1.80751  0.0283728
   1.81818  0.0168557
   1.82826  0.0576611
   1.83779  0.0642519
   1.84679  0.0551192
   1.85529 0.00166875
   1.86332 -0.0277404
   1.87091 -0.00134794
   1.87808  0.0726893
   1.88485   0.132741
   1.89125   0.152012
   1.89729   0.194457
     1.903   0.179634
    1.9084   0.066682
    1.9135  0.0329884
   1.91831  0.0560757
   1.92286  0.0302269
   1.92716 -0.0490702
   1.93122 -0.0981769
   1.93506 -0.0929661
   1.93868 -0.0544497
   1.94211 -0.00819447
   1.94534  0.0446424
    1.9484  0.0868555
   1.95129   0.111822
   1.95401   0.155943
   1.95659   0.240714
   1.95903   0.338123
   1.96133   0.413135
    1.9635    0.46676
   1.96555   0.523145
   1.96749   0.575284
   1.96933    0.59317
   1.97106   0.578418
   1.97269   0.563506
   1.97424   0.571716
    1.9757   0.610748
   1.97708   0.678766
   1.97838   0.767102
   1.97961   0.867061
   1.98077   0.974341
   1.98187    1.09063
   1.98291    1.22171
   1.98389    1.37392
   1.98482    1.55044
   1.98569    1.75061
   1.98652    1.97024
    1.9873    2.20179
   1.98804    2.43556
   1.98874    2.66188
    1.9894    2.87273
   1.99002    3.06214
   1.99061    3.22608
   1.99116    3.36208
   1.99169    3.46851
   1.99218    3.54434
   1.99265    3.58895
    1.9931    3.60215
   1.99355    3.58155
   1.99399    3.52205
   1.99444    3.41796
   1.99488    3.26385
   1.99533    3.05544
   1.99577    2.79097
   1.99622    2.47268
   1.99666    2.10842
   1.99711    1.71272
   1.99755     1.3069
     1.998   0.917434
   1.99844   0.572503
   1.99889   0.297174
   1.99933   0.108894
   1.99978  0.0153158
         2  0.0153158
