         0    0.05265
 0.0002225    0.05265
 0.0006675  -0.192083
 0.0011125  -0.521501
 0.0015575  -0.241787
 0.0020025 -0.0609923
 0.0024475 -0.00935974
 0.0028925  0.0150258
 0.0033375  0.0328194
 0.0037825  0.0408411
 0.0042275    0.04085
 0.0046725  0.0361932
 0.0051175   0.029138
 0.0055625  0.0256204
 0.0060075  0.0401678
 0.0064525  0.0674156
 0.0068975  0.0111119
 0.0073476   -0.10112
0.00781612 -0.0818469
0.00831203 -0.0266566
0.00883694 -0.0144929
0.00939255 -0.0176496
0.00998065 -0.0189008
 0.0106031 -0.0173589
  0.011262  -0.014503
 0.0119594  -0.011128
 0.0126977 -0.00715639
  0.013479 -0.00306261
 0.0143061 0.000965221
 0.0151815 0.00445433
 0.0161082 0.00767695
  0.017089  0.0101478
 0.0181271  0.0120107
  0.019226  0.0130825
 0.0203891  0.0135665
 0.0216203  0.0136328
 0.0229234  0.0131904
 0.0243028  0.0130182
 0.0257628  0.0136678
 0.0273082  0.0148242
  0.028944  0.0141264
 0.0306754  0.0100681
 0.0325081 0.00640773
 0.0344479 0.00261688
 0.0365012 -0.00267809
 0.0386746 -0.00458122
  0.040975 -0.00480923
   0.04341 -0.00599909
 0.0459873 -0.00845035
 0.0487154 -0.0063512
  0.051603 -0.00679929
 0.0546595 -0.00825315
 0.0578947 -0.00689397
 0.0613191 -0.00607607
 0.0649437 -0.00129137
 0.0687803 -0.00101058
 0.0728413 0.00112705
 0.0771397 0.00302152
 0.0816895 0.00314936
 0.0865054 0.00341473
 0.0916029 0.00463183
 0.0969985 -0.00410445
   0.10271 0.000815969
  0.108755 0.000981629
  0.115153 0.00664497
  0.121926 -0.00369791
  0.129095  0.0128952
  0.136683 -0.0135579
  0.144715 0.00641295
  0.153216 0.00150646
  0.162214 -0.00929636
  0.171739  0.0147446
  0.181821  -0.022016
  0.192492  0.0386609
  0.203788 -0.0605952
  0.215744  0.0842929
  0.228399  -0.109485
  0.241794   0.141659
  0.255972  -0.187234
   0.27098   0.206403
  0.286865  -0.110787
  0.304824 -0.0494011
  0.324407   0.136718
  0.343989  -0.135869
  0.363571   0.106724
  0.383154  -0.082661
  0.402736  0.0638883
  0.422319 -0.0539602
  0.441901  0.0488723
  0.461484 -0.0440297
  0.481066  0.0371243
  0.500648 -0.0293165
  0.520231   0.020947
  0.539813 -0.0121432
  0.559396 0.00438032
  0.578978 -6.38822e-05
   0.59856 -0.000110165
  0.618143 -0.000667565
  0.637725 -0.000857037
  0.657308 0.00245085
   0.67689 -0.00139667
  0.696473  0.0016441
  0.716055 -0.00582051
  0.735637 0.00836185
   0.75522 -0.0064163
  0.774802 0.00331035
  0.794385 -0.000485751
  0.813967 -0.000402823
  0.833549 -0.000419536
  0.853132 -0.00027604
  0.872714 0.00119684
  0.892297 -0.000105699
  0.911879 -0.000744313
  0.931462  2.064e-06
  0.951044 0.000713793
  0.970626 -0.00115899
  0.990209  0.0033764
   1.00979 -0.00547748
   1.02937 0.00509135
   1.04896 -0.00433284
   1.06854 0.00599964
   1.08812 -0.00760133
    1.1077 0.00606281
   1.12729 -0.00400931
   1.14687 0.00308773
   1.16645 -0.00277136
   1.18603 0.00141427
   1.20562 -0.000589193
    1.2252 0.00192668
   1.24478 -0.00377419
   1.26436 0.00678783
   1.28395 -0.00897423
   1.30353 0.00918928
   1.32311 -0.00891248
   1.34269 0.00680865
   1.36228 -0.00618799
   1.38186 0.00925847
   1.40144 -0.0126027
   1.42102   0.015503
   1.44061 -0.0194459
   1.46019   0.022988
   1.47977 -0.0249749
   1.49935  0.0281132
   1.51894 -0.0354099
   1.53852   0.046887
    1.5581 -0.0605798
   1.57768  0.0754495
   1.59727 -0.0902327
   1.61685   0.110395
   1.63643  -0.140017
   1.65601   0.175302
    1.6756  -0.172358
   1.69518  0.0764798
   1.71314  0.0819062
   1.72902  -0.176892
   1.74403   0.158186
   1.75821  -0.113969
    1.7716   0.087546
   1.78426 -0.0706623
   1.79621  0.0521439
   1.80751 -0.0291298
   1.81818  0.0153335
   1.82826 -0.0159351
   1.83779  0.0102011
   1.84679 -0.00204985
   1.85529 0.00131083
   1.86332 -0.000218984
   1.87091 -0.00486524
   1.87808 0.00353692
   1.88485 -0.00265859
   1.89125 -0.000591648
   1.89729 -0.00310608
     1.903 -0.00583532
    1.9084 -0.00444738
    1.9135 0.00682807
   1.91831 -0.00437139
   1.92286 -0.00478161
   1.92716 0.000950965
   1.93122 0.000857989
   1.93506  0.0027601
   1.93868 0.00692728
   1.94211 0.00349568
   1.94534 0.00466257
    1.9484 0.00996602
   1.95129  0.0073679
   1.95401 0.00889987
   1.95659 0.00806893
   1.95903 0.00392343
   1.96133 0.000227998
    1.9635 -0.00324003
   1.96555 -0.00456544
   1.96749 -0.00582717
   1.96933 -0.00793931
   1.97106 -0.00922092
   1.97269  -0.010269
   1.97424 -0.0133291
    1.9757 -0.0151082
   1.97708  -0.014276
   1.97838  -0.013143
   1.97961 -0.0130323
   1.98077 -0.0128078
   1.98187 -0.0119075
   1.98291 -0.0101823
   1.98389 -0.00767785
   1.98482 -0.00434288
   1.98569 -0.00058876
   1.98652 0.00348991
    1.9873 0.00754351
   1.98804  0.0113504
   1.98874  0.0145274
    1.9894  0.0171991
   1.99002  0.0186291
   1.99061  0.0173624
   1.99116  0.0143108
   1.99169   0.026441
   1.99218    0.08067
   1.99265  0.0986593
    1.9931 -0.0118003
   1.99355 -0.0664176
   1.99399  -0.039361
   1.99444 -0.0250693
   1.99488 -0.0284937
   1.99533 -0.0353095
   1.99577 -0.0397208
   1.99622 -0.0395265
   1.99666 -0.0314863
   1.99711 -0.0139204
   1.99755  0.0100317
     1.998  0.0605102
   1.99844   0.236838
   1.99889   0.508651
   1.99933    0.18535
   1.99978 -0.0527856
         2 -0.0527856
