         0          0
 0.0002225 6.4375e-08
 0.0006675 2.05677e-07
 0.0011125 3.12446e-07
 0.0015575 3.1754e-07
 0.0020025 2.75079e-07
 0.0024475 2.20517e-07
 0.0028925 1.63993e-07
 0.0033375 1.1016e-07
 0.0037825 6.24543e-08
 0.0042275 2.2642e-08
 0.0046725 -9.17324e-09
 0.0051175 -3.38676e-08
 0.0055625 -5.27038e-08
 0.0060075 -6.65359e-08
 0.0064525 -7.27177e-08
 0.0068975 -6.55819e-08
 0.0073476 -5.59549e-08
0.00781612 -6.77756e-08
0.00831203 -1.01259e-07
0.00883694 -1.45219e-07
0.00939255 -1.96999e-07
0.00998065 -2.5706e-07
 0.0106031 -3.27089e-07
  0.011262 -4.07297e-07
 0.0119594 -4.99666e-07
 0.0126977 -6.01813e-07
  0.013479 -7.07094e-07
 0.0143061 -8.14972e-07
 0.0151815 -9.24216e-07
 0.0161082 -1.04031e-06
  0.017089 -1.16426e-06
 0.0181271 -1.29631e-06
  0.019226 -1.42694e-06
 0.0203891 -1.55198e-06
 0.0216203 -1.68245e-06
 0.0229234 -1.81018e-06
 0.0243028 -1.90075e-06
 0.0257628 -1.91341e-06
 0.0273082 -1.94525e-06
  0.028944 -1.83109e-06
 0.0306754 -1.49681e-06
 0.0325081 -1.4768e-06
 0.0344479 -1.68383e-06
 0.0365012 -1.73899e-06
 0.0386746 -1.73206e-06
  0.040975 -1.62704e-06
   0.04341 -1.33924e-06
 0.0459873 -9.72212e-07
 0.0487154 -6.07774e-07
  0.051603 -5.76324e-07
 0.0546595 -2.66417e-07
 0.0578947 -6.10763e-09
 0.0613191 -3.01973e-06
 0.0649437 -2.64926e-06
 0.0687803 6.2892e-07
 0.0728413 -1.20355e-06
 0.0771397 -3.68423e-06
 0.0816895 -3.42725e-06
 0.0865054 -2.51548e-06
 0.0916029 2.4736e-06
 0.0969985 -2.66757e-06
   0.10271 -6.73384e-06
  0.108755 -1.1017e-05
  0.115153 -5.8198e-06
  0.121926 -4.89153e-06
  0.129095 5.80586e-07
  0.136683 -1.05026e-06
  0.144715 6.46028e-06
  0.153216 -1.58277e-05
  0.162214 -6.37727e-06
  0.171739 -6.2828e-06
  0.181821 -5.40336e-06
  0.192492 -4.55175e-06
  0.203788 -6.57208e-06
  0.215744 6.23047e-07
  0.228399 4.27363e-06
  0.241794 -1.94823e-05
  0.255972 1.63105e-05
   0.27098 -2.2003e-05
  0.286865 9.1712e-06
  0.304824 -3.82603e-06
  0.324407 -2.99829e-05
  0.343989 2.98015e-05
  0.363571 -1.56311e-05
  0.383154 -1.1662e-05
  0.402736 2.37256e-05
  0.422319 -1.0266e-05
  0.441901 -2.30323e-06
  0.461484 -6.03642e-06
  0.481066 -9.34371e-06
  0.500648 9.81769e-06
  0.520231 -2.05444e-05
  0.539813 3.04738e-05
  0.559396 -2.90412e-05
  0.578978 3.02771e-05
   0.59856 -1.87702e-05
  0.618143 5.20525e-06
  0.637725 -1.50837e-05
  0.657308 1.56543e-05
   0.67689 -1.6166e-05
  0.696473 4.97656e-06
  0.716055 -1.20177e-06
  0.735637 -1.27465e-05
   0.75522 1.39369e-05
  0.774802 -9.43505e-06
  0.794385 8.5697e-06
  0.813967 -1.0514e-05
  0.833549 3.62772e-06
  0.853132 2.79847e-06
  0.872714 1.19234e-06
  0.892297 -3.69434e-06
  0.911879 6.84992e-06
  0.931462 -1.07141e-05
  0.951044 3.05977e-06
  0.970626 1.02062e-05
  0.990209 -1.66456e-05
   1.00979 7.77004e-06
   1.02937 -4.67814e-06
   1.04896 -1.09787e-06
   1.06854 9.29083e-08
   1.08812 9.50573e-06
    1.1077 -3.29469e-06
   1.12729 2.10777e-06
   1.14687 -1.27893e-05
   1.16645 1.52222e-05
   1.18603 -3.57238e-06
   1.20562 5.53883e-06
    1.2252 -2.58292e-06
   1.24478 2.33733e-06
   1.26436 -7.71745e-06
   1.28395 3.89003e-06
   1.30353 3.25095e-07
   1.32311 2.15346e-06
   1.34269 6.10251e-06
   1.36228 -4.01017e-06
   1.38186 1.11236e-05
   1.40144 -1.29924e-05
   1.42102 1.52587e-05
   1.44061 -1.58076e-05
   1.46019 2.6566e-05
   1.47977 -3.12982e-05
   1.49935 2.43115e-05
   1.51894 -1.1686e-05
   1.53852 -5.04973e-07
    1.5581 2.08405e-05
   1.57768 -2.62782e-05
   1.59727 4.3088e-05
   1.61685 -4.25299e-05
   1.63643 4.21538e-05
   1.65601 -3.19747e-05
    1.6756 2.34091e-05
   1.69518 -1.65783e-06
   1.71314 -6.7833e-06
   1.72902 1.33396e-05
   1.74403 -1.28369e-06
   1.75821 5.3552e-06
    1.7716 -4.99531e-06
   1.78426 2.31698e-05
   1.79621 -1.08673e-05
   1.80751 1.12189e-05
   1.81818 -8.05401e-06
   1.82826 1.34731e-05
   1.83779 -2.97919e-06
   1.84679 2.5342e-06
   1.85529 7.36621e-06
   1.86332 1.00448e-05
   1.87091 7.41658e-06
   1.87808 7.27168e-06
   1.88485 -4.63968e-06
   1.89125 -3.24563e-06
   1.89729 7.3501e-06
     1.903 7.16022e-06
    1.9084 8.25137e-06
    1.9135 7.17709e-06
   1.91831 3.75551e-06
   1.92286 1.55695e-06
   1.92716 3.97236e-07
   1.93122 -1.26222e-06
   1.93506 -8.34042e-08
   1.93868 1.82244e-06
   1.94211 6.3056e-07
   1.94534 6.84089e-07
    1.9484 1.81343e-06
   1.95129 1.05427e-06
   1.95401 8.61712e-07
   1.95659 -1.09649e-07
   1.95903 -4.38784e-07
   1.96133 2.62094e-08
    1.9635 8.48344e-07
   1.96555 1.74932e-06
   1.96749 2.21364e-06
   1.96933 2.4027e-06
   1.97106 2.41179e-06
   1.97269 2.17772e-06
   1.97424 1.85379e-06
    1.9757 1.60468e-06
   1.97708 1.50288e-06
   1.97838 1.50462e-06
   1.97961 1.51784e-06
   1.98077 1.48174e-06
   1.98187 1.40272e-06
   1.98291 1.29015e-06
   1.98389 1.14266e-06
   1.98482 9.79037e-07
   1.98569 8.23805e-07
   1.98652 6.88632e-07
    1.9873  5.702e-07
   1.98804 4.65926e-07
   1.98874 3.72628e-07
    1.9894 2.94434e-07
   1.99002 2.30346e-07
   1.99061 1.7821e-07
   1.99116 1.34928e-07
   1.99169 9.7775e-08
   1.99218 6.80624e-08
   1.99265 5.70259e-08
    1.9931 6.63475e-08
   1.99355 7.28489e-08
   1.99399 6.58163e-08
   1.99444 5.06813e-08
   1.99488 3.08918e-08
   1.99533 5.95246e-09
   1.99577 -2.55126e-08
   1.99622 -6.46812e-08
   1.99666 -1.11838e-07
   1.99711 -1.65754e-07
   1.99755 -2.22963e-07
     1.998 -2.78498e-07
   1.99844 -3.21981e-07
   1.99889 -3.17645e-07
   1.99933 -2.1078e-07
   1.99978 -6.66709e-08
         2          0
