         0          0
 0.0002225 6.43716e-08
 0.0006675 2.05666e-07
 0.0011125 3.12404e-07
 0.0015575 3.17486e-07
 0.0020025 2.75042e-07
 0.0024475 2.20492e-07
 0.0028925 1.63979e-07
 0.0033375 1.10139e-07
 0.0037825 6.24302e-08
 0.0042275 2.26276e-08
 0.0046725 -9.19434e-09
 0.0051175 -3.38792e-08
 0.0055625 -5.26936e-08
 0.0060075 -6.65498e-08
 0.0064525 -7.27581e-08
 0.0068975 -6.56219e-08
 0.0073476 -5.60419e-08
0.00781612 -6.79489e-08
0.00831203 -1.01467e-07
0.00883694 -1.45375e-07
0.00939255 -1.9715e-07
0.00998065 -2.57313e-07
 0.0106031 -3.27338e-07
  0.011262 -4.07627e-07
 0.0119594 -4.99948e-07
 0.0126977 -6.02027e-07
  0.013479 -7.07343e-07
 0.0143061 -8.14469e-07
 0.0151815 -9.23499e-07
 0.0161082 -1.04025e-06
  0.017089 -1.16522e-06
 0.0181271 -1.29895e-06
  0.019226 -1.43073e-06
 0.0203891 -1.55448e-06
 0.0216203 -1.68337e-06
 0.0229234 -1.80907e-06
 0.0243028 -1.89798e-06
 0.0257628 -1.91401e-06
 0.0273082 -1.95094e-06
  0.028944 -1.84172e-06
 0.0306754 -1.51053e-06
 0.0325081 -1.48822e-06
 0.0344479 -1.69137e-06
 0.0365012 -1.74436e-06
 0.0386746 -1.73037e-06
  0.040975 -1.62179e-06
   0.04341 -1.33641e-06
 0.0459873 -9.71499e-07
 0.0487154 -6.00439e-07
  0.051603 -5.7534e-07
 0.0546595 -2.80867e-07
 0.0578947 -1.05829e-08
 0.0613191 -2.99515e-06
 0.0649437 -2.6182e-06
 0.0687803 6.35894e-07
 0.0728413 -1.20748e-06
 0.0771397 -3.6789e-06
 0.0816895 -3.4255e-06
 0.0865054 -2.56003e-06
 0.0916029 2.47759e-06
 0.0969985 -2.64995e-06
   0.10271 -6.71776e-06
  0.108755 -1.09847e-05
  0.115153 -5.87913e-06
  0.121926 -4.93795e-06
  0.129095 6.05774e-07
  0.136683 -1.03501e-06
  0.144715 6.44488e-06
  0.153216 -1.577e-05
  0.162214 -6.40959e-06
  0.171739 -6.31848e-06
  0.181821 -5.34237e-06
  0.192492 -4.55522e-06
  0.203788 -6.63416e-06
  0.215744 6.7475e-07
  0.228399 4.26699e-06
  0.241794 -1.94453e-05
  0.255972 1.6272e-05
   0.27098 -2.1948e-05
  0.286865 9.16054e-06
  0.304824 -3.8588e-06
  0.324407 -2.98804e-05
  0.343989 2.97169e-05
  0.363571 -1.54991e-05
  0.383154 -1.18064e-05
  0.402736 2.38012e-05
  0.422319 -1.02621e-05
  0.441901 -2.31419e-06
  0.461484 -6.03254e-06
  0.481066 -9.32553e-06
  0.500648 9.81218e-06
  0.520231 -2.05922e-05
  0.539813 3.04372e-05
  0.559396 -2.89939e-05
  0.578978  3.023e-05
   0.59856 -1.87741e-05
  0.618143 5.23196e-06
  0.637725 -1.51067e-05
  0.657308 1.56886e-05
   0.67689 -1.62048e-05
  0.696473 5.00615e-06
  0.716055 -1.22632e-06
  0.735637 -1.27368e-05
   0.75522 1.39526e-05
  0.774802 -9.44964e-06
  0.794385 8.58884e-06
  0.813967 -1.05043e-05
  0.833549 3.62449e-06
  0.853132 2.78105e-06
  0.872714 1.21545e-06
  0.892297 -3.6989e-06
  0.911879 6.84597e-06
  0.931462 -1.07142e-05
  0.951044 3.03159e-06
  0.970626 1.02239e-05
  0.990209 -1.66281e-05
   1.00979 7.74076e-06
   1.02937 -4.66001e-06
   1.04896 -1.10391e-06
   1.06854 8.19303e-08
   1.08812 9.51965e-06
    1.1077 -3.30565e-06
   1.12729 2.13032e-06
   1.14687 -1.27999e-05
   1.16645 1.52107e-05
   1.18603 -3.54874e-06
   1.20562 5.50613e-06
    1.2252 -2.59378e-06
   1.24478 2.31679e-06
   1.26436 -7.71928e-06
   1.28395 3.93669e-06
   1.30353 2.46889e-07
   1.32311  2.208e-06
   1.34269 6.07741e-06
   1.36228 -4.01099e-06
   1.38186 1.11301e-05
   1.40144 -1.29852e-05
   1.42102 1.52527e-05
   1.44061 -1.57974e-05
   1.46019 2.65444e-05
   1.47977 -3.12905e-05
   1.49935 2.43321e-05
   1.51894 -1.17498e-05
   1.53852 -4.77109e-07
    1.5581 2.08544e-05
   1.57768 -2.62584e-05
   1.59727 4.30412e-05
   1.61685 -4.2521e-05
   1.63643 4.22432e-05
   1.65601 -3.20996e-05
    1.6756 2.35268e-05
   1.69518 -1.68931e-06
   1.71314 -6.85008e-06
   1.72902 1.34113e-05
   1.74403 -1.3464e-06
   1.75821 5.38571e-06
    1.7716 -4.98938e-06
   1.78426 2.31076e-05
   1.79621 -1.08163e-05
   1.80751 1.11856e-05
   1.81818 -8.11615e-06
   1.82826 1.3453e-05
   1.83779 -2.93737e-06
   1.84679 2.55436e-06
   1.85529 7.35339e-06
   1.86332 9.96674e-06
   1.87091 7.36311e-06
   1.87808 7.28191e-06
   1.88485 -4.60885e-06
   1.89125 -3.22179e-06
   1.89729 7.35149e-06
     1.903 7.17073e-06
    1.9084 8.23054e-06
    1.9135 7.18479e-06
   1.91831 3.78025e-06
   1.92286 1.51813e-06
   1.92716 3.9793e-07
   1.93122 -1.25497e-06
   1.93506 -6.63669e-08
   1.93868 1.82131e-06
   1.94211 6.13655e-07
   1.94534 7.10579e-07
    1.9484 1.81607e-06
   1.95129 1.0548e-06
   1.95401 8.62023e-07
   1.95659 -1.19209e-07
   1.95903 -4.36434e-07
   1.96133 4.40417e-08
    1.9635 8.50721e-07
   1.96555 1.73608e-06
   1.96749 2.20729e-06
   1.96933 2.40007e-06
   1.97106 2.40872e-06
   1.97269 2.17556e-06
   1.97424 1.85322e-06
    1.9757 1.60663e-06
   1.97708 1.50668e-06
   1.97838 1.50657e-06
   1.97961 1.51801e-06
   1.98077 1.48106e-06
   1.98187 1.40138e-06
   1.98291 1.28863e-06
   1.98389 1.14225e-06
   1.98482 9.79221e-07
   1.98569 8.23949e-07
   1.98652 6.88599e-07
    1.9873 5.70678e-07
   1.98804 4.66646e-07
   1.98874 3.73109e-07
    1.9894 2.94344e-07
   1.99002 2.30087e-07
   1.99061 1.77749e-07
   1.99116 1.34496e-07
   1.99169 9.73626e-08
   1.99218 6.78055e-08
   1.99265 5.68828e-08
    1.9931 6.62546e-08
   1.99355 7.28209e-08
   1.99399 6.58197e-08
   1.99444 5.07343e-08
   1.99488 3.09223e-08
   1.99533 5.95866e-09
   1.99577 -2.55709e-08
   1.99622 -6.47844e-08
   1.99666 -1.11927e-07
   1.99711 -1.6579e-07
   1.99755 -2.22957e-07
     1.998 -2.78474e-07
   1.99844 -3.21969e-07
   1.99889 -3.17621e-07
   1.99933 -2.10762e-07
   1.99978 -6.66672e-08
         2          0
