         0          0
 0.0002225 -4.07127e-11
 0.0006675 -1.568e-09
 0.0011125 -7.40958e-09
 0.0015575 -2.04132e-08
 0.0020025 -4.28645e-08
 0.0024475 -7.6452e-08
 0.0028925 -1.22229e-07
 0.0033375 -1.80602e-07
 0.0037825 -2.51394e-07
 0.0042275 -3.33978e-07
 0.0046725 -4.27408e-07
 0.0051175 -5.30538e-07
 0.0055625 -6.42109e-07
 0.0060075 -7.60806e-07
 0.0064525 -8.85296e-07
 0.0068975 -1.01425e-06
 0.0073476 -1.14794e-06
0.00781612 -1.28925e-06
0.00831203 -1.43969e-06
0.00883694 -1.59827e-06
0.00939255 -1.76369e-06
0.00998065 -1.93431e-06
 0.0106031 -2.10821e-06
  0.011262 -2.28324e-06
 0.0119594 -2.45707e-06
 0.0126977 -2.62732e-06
  0.013479 -2.79168e-06
 0.0143061 -2.94804e-06
 0.0151815 -3.09465e-06
 0.0161082 -3.23029e-06
  0.017089 -3.35442e-06
 0.0181271 -3.4674e-06
  0.019226 -3.57039e-06
 0.0203891 -3.6652e-06
 0.0216203 -3.75346e-06
 0.0229234 -3.83593e-06
 0.0243028 -3.91253e-06
 0.0257628 -3.98304e-06
 0.0273082 -4.04653e-06
  0.028944 -4.10096e-06
 0.0306754 -4.14391e-06
 0.0325081 -4.17471e-06
 0.0344479 -4.19489e-06
 0.0365012 -4.20684e-06
 0.0386746 -4.21538e-06
  0.040975 -4.22517e-06
   0.04341 -4.23304e-06
 0.0459873 -4.23215e-06
 0.0487154 -4.2204e-06
  0.051603 -4.19834e-06
 0.0546595 -4.17191e-06
 0.0578947 -4.14495e-06
 0.0613191 -4.11664e-06
 0.0649437 -4.07908e-06
 0.0687803 -4.03468e-06
 0.0728413 -3.97944e-06
 0.0771397 -3.92277e-06
 0.0816895 -3.86916e-06
 0.0865054 -3.8282e-06
 0.0916029 -3.80002e-06
 0.0969985 -3.77942e-06
   0.10271 -3.74593e-06
  0.108755 -3.70672e-06
  0.115153 -3.70197e-06
  0.121926 -3.70403e-06
  0.129095 -3.71055e-06
  0.136683 -3.69853e-06
  0.144715 -3.66361e-06
  0.153216 -3.67693e-06
  0.162214 -3.73043e-06
  0.171739 -3.70097e-06
  0.181821 -3.72297e-06
  0.192492 -3.71053e-06
  0.203788 -3.84191e-06
  0.215744 -3.85509e-06
  0.228399 -3.92065e-06
  0.241794 -4.11505e-06
  0.255972 -4.22258e-06
   0.27098 -4.14733e-06
  0.286865 -4.35498e-06
  0.304824 -4.39921e-06
  0.324407 -4.57332e-06
  0.343989 -4.84926e-06
  0.363571 -4.93132e-06
  0.383154 -5.15875e-06
  0.402736 -4.88655e-06
  0.422319 -4.51783e-06
  0.441901 -4.80773e-06
  0.461484 -4.75104e-06
  0.481066 -4.99797e-06
  0.500648 -4.68628e-06
  0.520231 -4.72083e-06
  0.539813 -4.58076e-06
  0.559396 -4.58158e-06
  0.578978 -4.57804e-06
   0.59856 -4.41349e-06
  0.618143 -4.35041e-06
  0.637725 -4.03762e-06
  0.657308 -4.10475e-06
   0.67689 -4.06212e-06
  0.696473 -3.96242e-06
  0.716055 -3.80772e-06
  0.735637 -3.94168e-06
   0.75522 -3.89147e-06
  0.774802 -3.88761e-06
  0.794385 -3.74209e-06
  0.813967 -3.69936e-06
  0.833549 -3.66476e-06
  0.853132 -3.77857e-06
  0.872714 -3.74448e-06
  0.892297 -3.74968e-06
  0.911879 -3.75887e-06
  0.931462 -3.70468e-06
  0.951044 -3.65698e-06
  0.970626 -3.59333e-06
  0.990209 -3.45693e-06
   1.00979 -3.46545e-06
   1.02937 -3.42607e-06
   1.04896 -3.49242e-06
   1.06854 -3.41393e-06
   1.08812 -3.4404e-06
    1.1077 -3.42136e-06
   1.12729 -3.31437e-06
   1.14687 -3.21097e-06
   1.16645 -3.08456e-06
   1.18603 -3.07208e-06
   1.20562 -3.06849e-06
    1.2252 -3.3329e-06
   1.24478 -3.26458e-06
   1.26436 -3.26406e-06
   1.28395 -3.20754e-06
   1.30353 -3.20689e-06
   1.32311 -3.30778e-06
   1.34269 -3.31385e-06
   1.36228 -3.27416e-06
   1.38186 -3.40479e-06
   1.40144 -3.29774e-06
   1.42102 -3.37574e-06
   1.44061 -3.61902e-06
   1.46019 -3.48939e-06
   1.47977 -3.62548e-06
   1.49935 -3.5118e-06
   1.51894 -3.59579e-06
   1.53852 -3.44094e-06
    1.5581 -3.54846e-06
   1.57768 -3.37552e-06
   1.59727 -3.18133e-06
   1.61685 -3.2857e-06
   1.63643 -3.0326e-06
   1.65601 -3.02492e-06
    1.6756 -2.89427e-06
   1.69518 -3.15247e-06
   1.71314 -3.09879e-06
   1.72902 -3.48527e-06
   1.74403 -3.04967e-06
   1.75821 -3.2004e-06
    1.7716 -3.16897e-06
   1.78426 -3.15687e-06
   1.79621 -3.06039e-06
   1.80751 -3.08099e-06
   1.81818 -3.09268e-06
   1.82826 -3.05442e-06
   1.83779 -2.99966e-06
   1.84679 -2.96134e-06
   1.85529 -2.93222e-06
   1.86332 -2.96905e-06
   1.87091 -2.96247e-06
   1.87808 -2.95395e-06
   1.88485 -2.88539e-06
   1.89125 -2.81511e-06
   1.89729 -2.77498e-06
     1.903 -2.71154e-06
    1.9084 -2.69214e-06
    1.9135 -2.68797e-06
   1.91831 -2.67348e-06
   1.92286 -2.65075e-06
   1.92716 -2.65682e-06
   1.93122 -2.67757e-06
   1.93506 -2.69841e-06
   1.93868 -2.71205e-06
   1.94211 -2.72075e-06
   1.94534 -2.71725e-06
    1.9484 -2.70589e-06
   1.95129 -2.69223e-06
   1.95401 -2.67456e-06
   1.95659 -2.6486e-06
   1.95903 -2.61263e-06
   1.96133 -2.56988e-06
    1.9635 -2.52444e-06
   1.96555 -2.47694e-06
   1.96749 -2.42722e-06
   1.96933 -2.37806e-06
   1.97106 -2.33304e-06
   1.97269 -2.2929e-06
   1.97424 -2.25546e-06
    1.9757 -2.21813e-06
   1.97708 -2.17882e-06
   1.97838 -2.13617e-06
   1.97961 -2.08969e-06
   1.98077 -2.03946e-06
   1.98187 -1.98564e-06
   1.98291 -1.92815e-06
   1.98389 -1.86661e-06
   1.98482 -1.80054e-06
   1.98569 -1.72954e-06
   1.98652 -1.65341e-06
    1.9873 -1.57233e-06
   1.98804 -1.48684e-06
   1.98874 -1.39784e-06
    1.9894 -1.3064e-06
   1.99002 -1.21371e-06
   1.99061 -1.1209e-06
   1.99116 -1.02906e-06
   1.99169 -9.39125e-07
   1.99218 -8.51931e-07
   1.99265 -7.68186e-07
    1.9931 -6.87121e-07
   1.99355 -6.07082e-07
   1.99399 -5.2795e-07
   1.99444 -4.50651e-07
   1.99488 -3.76235e-07
   1.99533 -3.0586e-07
   1.99577 -2.40755e-07
   1.99622 -1.82152e-07
   1.99666 -1.31175e-07
   1.99711 -8.87065e-08
   1.99755 -5.52279e-08
     1.998 -3.06814e-08
   1.99844 -1.43931e-08
   1.99889 -5.09772e-09
   1.99933 -1.02674e-09
   1.99978 -1.80646e-11
         2          0
