         0          0
 0.0002225 6.74378e-08
 0.0006675 2.1274e-07
 0.0011125 3.20004e-07
 0.0015575 3.23998e-07
 0.0020025 2.80113e-07
 0.0024475 2.24149e-07
 0.0028925 1.66332e-07
 0.0033375 1.1149e-07
 0.0037825 6.31477e-08
 0.0042275 2.28927e-08
 0.0046725 -9.27297e-09
 0.0051175 -3.42715e-08
 0.0055625 -5.34999e-08
 0.0060075 -6.76549e-08
 0.0064525 -7.38557e-08
 0.0068975 -6.67064e-08
 0.0073476 -5.72496e-08
0.00781612 -6.89717e-08
0.00831203 -1.00936e-07
0.00883694 -1.41906e-07
0.00939255 -1.89618e-07
0.00998065 -2.46051e-07
 0.0106031 -3.129e-07
  0.011262 -3.90981e-07
 0.0119594 -4.80481e-07
 0.0126977 -5.81107e-07
  0.013479 -6.91863e-07
 0.0143061 -8.1113e-07
 0.0151815 -9.36654e-07
 0.0161082 -1.0658e-06
  0.017089 -1.19533e-06
 0.0181271 -1.3218e-06
  0.019226 -1.44158e-06
 0.0203891 -1.55116e-06
 0.0216203 -1.64718e-06
 0.0229234 -1.72631e-06
 0.0243028 -1.78569e-06
 0.0257628 -1.82158e-06
 0.0273082 -1.82785e-06
  0.028944 -1.79596e-06
 0.0306754 -1.72105e-06
 0.0325081 -1.60891e-06
 0.0344479 -1.46678e-06
 0.0365012 -1.30562e-06
 0.0386746 -1.14732e-06
  0.040975 -1.00333e-06
   0.04341 -8.7862e-07
 0.0459873 -7.85335e-07
 0.0487154 -7.477e-07
  0.051603 -7.59317e-07
 0.0546595 -8.33328e-07
 0.0578947 -9.95596e-07
 0.0613191 -1.2459e-06
 0.0649437 -1.5884e-06
 0.0687803 -1.96939e-06
 0.0728413 -2.38886e-06
 0.0771397 -2.81263e-06
 0.0816895 -3.2004e-06
 0.0865054 -3.53989e-06
 0.0916029 -3.81302e-06
 0.0969985 -3.97111e-06
   0.10271 -4.26851e-06
  0.108755 -4.55433e-06
  0.115153 -4.81782e-06
  0.121926 -4.80058e-06
  0.129095 -4.96696e-06
  0.136683 -4.42169e-06
  0.144715 -4.69429e-06
  0.153216 -4.53251e-06
  0.162214 -4.24275e-06
  0.171739 -4.75546e-06
  0.181821 -3.84206e-06
  0.192492 -5.31115e-06
  0.203788 -2.07372e-06
  0.215744 -7.06259e-06
  0.228399 7.72825e-07
  0.241794 -1.00201e-05
  0.255972 6.22409e-06
   0.27098 -1.75538e-05
  0.286865 7.88149e-06
  0.304824 4.13423e-06
  0.324407 -1.88956e-05
  0.343989 1.05022e-05
  0.363571 -1.22021e-05
  0.383154 6.01921e-06
  0.402736 -7.45759e-06
  0.422319 3.56492e-06
  0.441901 -6.10475e-06
  0.461484 2.96668e-06
  0.481066 -4.84599e-06
  0.500648 1.57742e-06
  0.520231 -3.2412e-06
  0.539813 -2.72344e-08
  0.559396 -1.46984e-06
  0.578978 -1.23272e-06
   0.59856 -1.0201e-06
  0.618143 -8.49726e-07
  0.637725 -9.35342e-07
  0.657308 -1.34961e-06
   0.67689 -8.24042e-07
  0.696473 -8.34059e-07
  0.716055 -2.13613e-07
  0.735637 -1.82517e-06
   0.75522 -2.30191e-07
  0.774802 -1.09568e-06
  0.794385 -6.91752e-07
  0.813967 -4.74093e-07
  0.833549 -4.10904e-07
  0.853132 -5.08596e-07
  0.872714 -7.12141e-07
  0.892297 -4.56732e-07
  0.911879 -2.41855e-07
  0.931462 -3.124e-07
  0.951044 -3.82153e-07
  0.970626 -1.78188e-07
  0.990209 -4.1866e-07
   1.00979 6.3562e-07
   1.02937 -4.1057e-07
   1.04896 4.95641e-07
   1.06854 -2.5968e-07
   1.08812 1.2857e-06
    1.1077 -8.38255e-08
   1.12729 8.71576e-07
   1.14687 2.89511e-07
   1.16645 8.91512e-07
   1.18603 4.30768e-07
   1.20562 5.12361e-07
    1.2252 3.68013e-07
   1.24478 9.62498e-07
   1.26436 1.09679e-07
   1.28395 1.85982e-06
   1.30353 1.68566e-07
   1.32311 2.00117e-06
   1.34269 4.16064e-07
   1.36228 1.4419e-06
   1.38186 9.48016e-08
   1.40144 2.29809e-06
   1.42102 -3.31433e-07
   1.44061 2.98403e-06
   1.46019 -1.15752e-06
   1.47977 3.51623e-06
   1.49935 -1.38727e-06
   1.51894 4.48992e-06
   1.53852 -3.21167e-06
    1.5581 7.06671e-06
   1.57768 -5.88571e-06
   1.59727 1.00948e-05
   1.61685 -8.52658e-06
   1.63643 1.51858e-05
   1.65601 -1.47946e-05
    1.6756 2.2449e-05
   1.69518 -6.40219e-06
   1.71314 -5.96482e-06
   1.72902 1.56769e-05
   1.74403 -4.849e-06
   1.75821 8.46168e-06
    1.7716 7.06095e-09
   1.78426 6.43813e-06
   1.79621 2.1264e-06
   1.80751 4.89457e-06
   1.81818 4.09841e-06
   1.82826 4.94901e-06
   1.83779 4.26593e-06
   1.84679 4.47006e-06
   1.85529 4.51055e-06
   1.86332 4.63577e-06
   1.87091 4.74111e-06
   1.87808 4.58349e-06
   1.88485 4.60143e-06
   1.89125 4.50643e-06
   1.89729 4.39446e-06
     1.903 4.18448e-06
    1.9084 3.8114e-06
    1.9135 3.34009e-06
   1.91831 3.05768e-06
   1.92286 2.69781e-06
   1.92716 2.26696e-06
   1.93122 1.87605e-06
   1.93506 1.51972e-06
   1.93868 1.22037e-06
   1.94211 1.02109e-06
   1.94534 8.70454e-07
    1.9484 7.72931e-07
   1.95129 7.66254e-07
   1.95401 8.16336e-07
   1.95659 9.2445e-07
   1.95903 1.07579e-06
   1.96133 1.24012e-06
    1.9635 1.39648e-06
   1.96555 1.53015e-06
   1.96749 1.63877e-06
   1.96933 1.72127e-06
   1.97106 1.77472e-06
   1.97269 1.79986e-06
   1.97424 1.79838e-06
    1.9757 1.76777e-06
   1.97708 1.70928e-06
   1.97838 1.6291e-06
   1.97961 1.53286e-06
   1.98077 1.42381e-06
   1.98187 1.30487e-06
   1.98291 1.17931e-06
   1.98389 1.05061e-06
   1.98482 9.22248e-07
   1.98569 7.9755e-07
   1.98652 6.79328e-07
    1.9873 5.69828e-07
   1.98804 4.70605e-07
   1.98874 3.82542e-07
    1.9894 3.05829e-07
   1.99002 2.40208e-07
   1.99061 1.84838e-07
   1.99116 1.3804e-07
   1.99169 9.78812e-08
   1.99218 6.66285e-08
   1.99265 5.53122e-08
    1.9931 6.46539e-08
   1.99355 7.15531e-08
   1.99399   6.53e-08
   1.99444 5.12524e-08
   1.99488 3.22404e-08
   1.99533 7.58599e-09
   1.99577 -2.40606e-08
   1.99622 -6.35729e-08
   1.99666 -1.10912e-07
   1.99711 -1.64487e-07
   1.99755 -2.20818e-07
     1.998 -2.75163e-07
   1.99844 -3.17525e-07
   1.99889 -3.12988e-07
   1.99933 -2.07724e-07
   1.99978 -6.57572e-08
         2          0
