         0          0
 0.0002225 -4.19864e-11
 0.0006675 -1.57838e-09
 0.0011125 -7.4309e-09
 0.0015575 -2.04302e-08
 0.0020025 -4.28566e-08
 0.0024475 -7.63981e-08
 0.0028925 -1.22108e-07
 0.0033375 -1.80391e-07
 0.0037825 -2.51074e-07
 0.0042275 -3.33531e-07
 0.0046725 -4.26817e-07
 0.0051175 -5.29789e-07
 0.0055625 -6.41191e-07
 0.0060075 -7.59711e-07
 0.0064525 -8.84019e-07
 0.0068975 -1.01279e-06
 0.0073476 -1.1463e-06
0.00781612 -1.2874e-06
0.00831203 -1.4376e-06
0.00883694 -1.59592e-06
0.00939255 -1.76105e-06
0.00998065 -1.93133e-06
 0.0106031 -2.10485e-06
  0.011262 -2.27943e-06
 0.0119594 -2.45272e-06
 0.0126977 -2.62233e-06
  0.013479 -2.78592e-06
 0.0143061 -2.94136e-06
 0.0151815 -3.0869e-06
 0.0161082 -3.22127e-06
  0.017089 -3.34395e-06
 0.0181271 -3.45527e-06
  0.019226 -3.55639e-06
 0.0203891 -3.6491e-06
 0.0216203 -3.73507e-06
 0.0229234 -3.81508e-06
 0.0243028 -3.88919e-06
 0.0257628 -3.95731e-06
 0.0273082 -4.01866e-06
  0.028944 -4.07136e-06
 0.0306754 -4.11313e-06
 0.0325081 -4.14357e-06
 0.0344479 -4.16443e-06
 0.0365012 -4.17814e-06
 0.0386746 -4.18927e-06
  0.040975 -4.20216e-06
   0.04341 -4.21307e-06
 0.0459873 -4.21454e-06
 0.0487154 -4.20398e-06
  0.051603 -4.18197e-06
 0.0546595 -4.15471e-06
 0.0578947 -4.12606e-06
 0.0613191 -4.0948e-06
 0.0649437 -4.05335e-06
 0.0687803 -4.00576e-06
 0.0728413 -3.94923e-06
 0.0771397 -3.89341e-06
 0.0816895 -3.84158e-06
 0.0865054 -3.80128e-06
 0.0916029 -3.77318e-06
 0.0969985 -3.75016e-06
   0.10271 -3.70691e-06
  0.108755 -3.64227e-06
  0.115153 -3.59152e-06
  0.121926 -3.53167e-06
  0.129095 -3.46849e-06
  0.136683 -3.38286e-06
  0.144715 -3.27677e-06
  0.153216 -3.21924e-06
  0.162214 -3.19599e-06
  0.171739 -3.11569e-06
  0.181821 -3.12069e-06
  0.192492 -3.10615e-06
  0.203788 -3.26577e-06
  0.215744 -3.33202e-06
  0.228399 -3.48259e-06
  0.241794 -3.76004e-06
  0.255972 -3.95675e-06
   0.27098 -3.93259e-06
  0.286865 -4.1489e-06
  0.304824 -4.25021e-06
  0.324407 -4.52239e-06
  0.343989 -4.86587e-06
  0.363571 -4.88837e-06
  0.383154 -4.97094e-06
  0.402736 -4.49506e-06
  0.422319 -3.90205e-06
  0.441901 -3.81384e-06
  0.461484 -3.42943e-06
  0.481066 -3.49178e-06
  0.500648 -3.1491e-06
  0.520231 -3.26459e-06
  0.539813 -3.15723e-06
  0.559396 -3.17561e-06
  0.578978 -3.24397e-06
   0.59856 -3.17821e-06
  0.618143 -3.21748e-06
  0.637725 -3.02048e-06
  0.657308 -3.22645e-06
   0.67689 -3.32002e-06
  0.696473 -3.30258e-06
  0.716055 -3.20137e-06
  0.735637 -3.4168e-06
   0.75522 -3.42542e-06
  0.774802 -3.44968e-06
  0.794385 -3.27385e-06
  0.813967 -3.162e-06
  0.833549 -3.04315e-06
  0.853132 -3.10499e-06
  0.872714 -3.06604e-06
  0.892297 -3.10612e-06
  0.911879 -3.15612e-06
  0.931462 -3.13181e-06
  0.951044 -3.10314e-06
  0.970626 -3.07863e-06
  0.990209 -2.99924e-06
   1.00979 -3.06302e-06
   1.02937 -3.07294e-06
   1.04896 -3.184e-06
   1.06854 -3.14734e-06
   1.08812 -3.21839e-06
    1.1077 -3.23022e-06
   1.12729 -3.14422e-06
   1.14687 -3.06763e-06
   1.16645 -2.97148e-06
   1.18603 -2.964e-06
   1.20562 -2.95538e-06
    1.2252 -3.1911e-06
   1.24478 -3.06608e-06
   1.26436 -3.00143e-06
   1.28395 -2.86035e-06
   1.30353 -2.80743e-06
   1.32311 -2.88013e-06
   1.34269 -2.84132e-06
   1.36228 -2.71474e-06
   1.38186 -2.74017e-06
   1.40144 -2.55695e-06
   1.42102 -2.58681e-06
   1.44061 -2.75106e-06
   1.46019 -2.5719e-06
   1.47977 -2.6002e-06
   1.49935 -2.37238e-06
   1.51894 -2.27504e-06
   1.53852 -1.92377e-06
    1.5581 -1.88188e-06
   1.57768 -1.60715e-06
   1.59727 -1.3541e-06
   1.61685 -1.47617e-06
   1.63643 -1.20983e-06
   1.65601 -1.23514e-06
    1.6756 -1.16272e-06
   1.69518 -1.56226e-06
   1.71314 -1.68121e-06
   1.72902 -2.27843e-06
   1.74403 -2.05781e-06
   1.75821 -2.33868e-06
    1.7716 -2.48018e-06
   1.78426 -2.59789e-06
   1.79621 -2.64709e-06
   1.80751 -2.80405e-06
   1.81818 -2.93022e-06
   1.82826 -2.9732e-06
   1.83779 -2.98538e-06
   1.84679 -3.0071e-06
   1.85529 -3.03485e-06
   1.86332 -3.10679e-06
   1.87091 -3.11887e-06
   1.87808 -3.11725e-06
   1.88485 -3.04586e-06
   1.89125 -2.9704e-06
   1.89729 -2.92594e-06
     1.903 -2.85961e-06
    1.9084 -2.83329e-06
    1.9135 -2.81713e-06
   1.91831 -2.78769e-06
   1.92286 -2.74967e-06
   1.92716 -2.7427e-06
   1.93122 -2.75389e-06
   1.93506 -2.76769e-06
   1.93868 -2.7755e-06
   1.94211 -2.77836e-06
   1.94534 -2.76841e-06
    1.9484 -2.74994e-06
   1.95129 -2.72878e-06
   1.95401 -2.70378e-06
   1.95659 -2.67101e-06
   1.95903 -2.62874e-06
   1.96133 -2.58025e-06
    1.9635 -2.52977e-06
   1.96555 -2.47805e-06
   1.96749 -2.42497e-06
   1.96933 -2.37327e-06
   1.97106 -2.32649e-06
   1.97269 -2.28527e-06
   1.97424 -2.24735e-06
    1.9757 -2.21001e-06
   1.97708 -2.17101e-06
   1.97838 -2.12886e-06
   1.97961 -2.08298e-06
   1.98077 -2.03338e-06
   1.98187 -1.98019e-06
   1.98291 -1.9233e-06
   1.98389 -1.86235e-06
   1.98482 -1.79682e-06
   1.98569 -1.7263e-06
   1.98652 -1.6506e-06
    1.9873 -1.56988e-06
   1.98804 -1.48469e-06
   1.98874 -1.39593e-06
    1.9894 -1.3047e-06
   1.99002 -1.21217e-06
   1.99061 -1.1195e-06
   1.99116 -1.02776e-06
   1.99169 -9.37929e-07
   1.99218 -8.50825e-07
   1.99265 -7.67159e-07
    1.9931 -6.86165e-07
   1.99355 -6.06204e-07
   1.99399 -5.27159e-07
   1.99444 -4.49955e-07
   1.99488 -3.75637e-07
   1.99533 -3.05361e-07
   1.99577 -2.40356e-07
   1.99622 -1.81848e-07
   1.99666 -1.30959e-07
   1.99711 -8.85668e-08
   1.99755 -5.51509e-08
     1.998 -3.0651e-08
   1.99844 -1.43918e-08
   1.99889 -5.10738e-09
   1.99933 -1.03283e-09
   1.99978 -1.89399e-11
         2          0
