         0  -0.208721
 0.0002225  -0.208633
 0.0006675  -0.208251
 0.0011125  -0.207407
 0.0015575  -0.205977
 0.0020025  -0.203807
 0.0024475  -0.200741
 0.0028925  -0.196644
 0.0033375  -0.191441
 0.0037825  -0.185128
 0.0042275  -0.177781
 0.0046725  -0.169542
 0.0051175  -0.160597
 0.0055625  -0.151156
 0.0060075  -0.141431
 0.0064525  -0.131631
 0.0068975  -0.121959
 0.0073476  -0.112515
0.00781612  -0.103266
0.00831203 -0.0943405
0.00883694 -0.0860751
0.00939255 -0.0788224
0.00998065 -0.0729147
 0.0106031 -0.0686134
  0.011262 -0.0660582
 0.0119594 -0.0652322
 0.0126977 -0.0659542
  0.013479 -0.0679004
 0.0143061 -0.0706111
 0.0151815 -0.0735047
 0.0161082 -0.0759938
  0.017089 -0.0776827
 0.0181271 -0.0785095
  0.019226 -0.0787266
 0.0203891 -0.0787105
 0.0216203 -0.0786305
 0.0229234 -0.0783044
 0.0243028 -0.0776984
 0.0257628 -0.0772258
 0.0273082 -0.0764691
  0.028944 -0.0733184
 0.0306754  -0.065647
 0.0325081 -0.0528426
 0.0344479 -0.0360192
 0.0365012 -0.0184728
 0.0386746 -0.00354624
  0.040975 0.00783237
   0.04341  0.0157053
 0.0459873  0.0192611
 0.0487154  0.0181418
  0.051603  0.0167738
 0.0546595  0.0217296
 0.0578947  0.0337052
 0.0613191   0.045924
 0.0649437  0.0523429
 0.0687803  0.0543288
 0.0728413  0.0534764
 0.0771397  0.0494905
 0.0816895  0.0445375
 0.0865054  0.0405887
 0.0916029  0.0339856
 0.0969985  0.0212855
   0.10271 0.00882181
  0.108755 0.00455699
  0.115153  0.0143019
  0.121926   0.031088
  0.129095  0.0369068
  0.136683  0.0327331
  0.144715  0.0217168
  0.153216 0.00703877
  0.162214 -0.00350107
  0.171739 -0.0110032
  0.181821 -0.00850727
  0.192492  0.0117497
  0.203788  0.0329657
  0.215744  0.0424016
  0.228399  0.0382298
  0.241794  0.0215743
  0.255972  0.0100862
   0.27098 0.00596296
  0.286865 0.00296465
  0.304824  0.0132015
  0.324407  0.0336482
  0.343989  0.0253198
  0.363571 -0.00855997
  0.383154 -0.0220406
  0.402736 -0.0134725
  0.422319 -0.0109797
  0.441901 -0.00252037
  0.461484  0.0150759
  0.481066  0.0169483
  0.500648 -0.00953097
  0.520231 -0.0318971
  0.539813 -0.0224353
  0.559396 -0.00699235
  0.578978  0.0010979
   0.59856 -0.00139535
  0.618143 -0.0168561
  0.637725 -0.0269033
  0.657308 -0.0125651
   0.67689  0.0049118
  0.696473 0.00529919
  0.716055 -0.00831594
  0.735637 -0.0158905
   0.75522 -0.00853839
  0.774802 -0.000409302
  0.794385 0.00481802
  0.813967 0.00474651
  0.833549 0.00626799
  0.853132 0.00963475
  0.872714 6.24461e-05
  0.892297 -0.0158426
  0.911879 -0.0207181
  0.931462 -0.0109375
  0.951044 -0.00139346
  0.970626  0.0039798
  0.990209  0.0104158
   1.00979  0.0132631
   1.02937 0.00918671
   1.04896 -0.00286735
   1.06854 -0.0139909
   1.08812 -0.0161232
    1.1077 -0.0160503
   1.12729 -0.0172616
   1.14687 -0.0185288
   1.16645 -0.0169692
   1.18603 -0.00756462
   1.20562 0.00354961
    1.2252 0.00902717
   1.24478  0.0135952
   1.26436  0.0177958
   1.28395  0.0111998
   1.30353 -0.00447806
   1.32311 -0.0141951
   1.34269 -0.0177457
   1.36228 -0.00797787
   1.38186   0.019883
   1.40144  0.0342669
   1.42102  0.0194619
   1.44061 0.00525894
   1.46019 -0.00662707
   1.47977 -0.0243558
   1.49935 -0.0340607
   1.51894 -0.0416705
   1.53852  -0.023107
    1.5581  0.0163964
   1.57768  0.0251626
   1.59727 0.00911078
   1.61685 0.00366164
   1.63643  0.0135245
   1.65601  0.0210843
    1.6756  0.0196044
   1.69518 0.000247431
   1.71314 -0.0223907
   1.72902 -0.0236201
   1.74403 -0.0155198
   1.75821 -0.0156223
    1.7716 -0.0141091
   1.78426 0.00505828
   1.79621  0.0201237
   1.80751  0.0194552
   1.81818  0.0194958
   1.82826  0.0283114
   1.83779  0.0386586
   1.84679  0.0295609
   1.85529 0.00952383
   1.86332 -0.000636741
   1.87091 -0.0064098
   1.87808 -0.00773108
   1.88485 -0.0163754
   1.89125 -0.0342338
   1.89729 -0.0357087
     1.903 -0.0227749
    1.9084 -0.00984897
    1.9135 0.00774948
   1.91831  0.0333471
   1.92286  0.0532863
   1.92716  0.0588366
   1.93122  0.0570929
   1.93506  0.0561956
   1.93868  0.0574726
   1.94211  0.0546597
   1.94534  0.0458557
    1.9484  0.0373828
   1.95129  0.0314903
   1.95401   0.025657
   1.95659  0.0193524
   1.95903  0.0155605
   1.96133  0.0163988
    1.9635   0.019889
   1.96555  0.0224039
   1.96749  0.0219229
   1.96933  0.0182433
   1.97106  0.0119169
   1.97269 0.00342934
   1.97424 -0.00666245
    1.9757 -0.0172997
   1.97708 -0.0270012
   1.97838 -0.0344471
   1.97961 -0.0390493
   1.98077  -0.040979
   1.98187 -0.0408332
   1.98291 -0.0393425
   1.98389 -0.0372217
   1.98482 -0.0351322
   1.98569 -0.0336064
   1.98652 -0.0329516
    1.9873 -0.0332563
   1.98804 -0.0344369
   1.98874  -0.036269
    1.9894 -0.0384378
   1.99002 -0.0406271
   1.99061 -0.0426118
   1.99116 -0.0442872
   1.99169 -0.0456347
   1.99218 -0.0466754
   1.99265 -0.0474325
    1.9931  -0.047922
   1.99355 -0.0481352
   1.99399 -0.0480356
   1.99444  -0.047597
   1.99488 -0.0468326
   1.99533 -0.0458084
   1.99577 -0.0446392
   1.99622 -0.0434652
   1.99666  -0.042419
   1.99711 -0.0415939
   1.99755 -0.0410255
     1.998 -0.0406951
   1.99844 -0.0405495
   1.99889 -0.0405219
   1.99933  -0.040549
   1.99978 -0.0405793
         2 -0.0405899
