         0 -2.78498e-16
 0.0002225 -1.91071e-18
 0.0006675 7.8115e-19
 0.0011125 -7.84729e-18
 0.0015575 -8.34556e-18
 0.0020025 -2.17889e-17
 0.0024475 -5.71213e-18
 0.0028925 -3.1052e-17
 0.0033375 -1.95849e-17
 0.0037825 -3.2143e-17
 0.0042275 -1.5478e-17
 0.0046725 -5.58475e-17
 0.0051175 -2.24795e-17
 0.0055625 -1.10039e-17
 0.0060075 -3.90948e-17
 0.0064525 -4.39214e-17
 0.0068975 -2.34883e-17
 0.0073476 -4.68952e-17
0.00781612 -6.31495e-17
0.00831203 -1.37245e-17
0.00883694 1.18321e-17
0.00939255 -8.30806e-17
0.00998065 2.82754e-17
 0.0106031 -5.86585e-17
  0.011262 -3.11778e-17
 0.0119594 -7.57649e-17
 0.0126977 -5.24412e-17
  0.013479 -1.02874e-16
 0.0143061 3.34772e-17
 0.0151815 -5.86284e-17
 0.0161082 -4.04768e-17
  0.017089 -7.87601e-17
 0.0181271 -8.99475e-17
  0.019226 -5.0665e-17
 0.0203891 -2.94819e-17
 0.0216203 -5.20338e-17
 0.0229234 -2.34039e-17
 0.0243028 -7.5366e-17
 0.0257628 -2.70416e-18
 0.0273082 3.02348e-17
  0.028944 -4.72352e-17
 0.0306754 -2.81557e-17
 0.0325081 -5.12252e-17
 0.0344479 -8.44683e-17
 0.0365012 -7.61033e-17
 0.0386746 -3.84979e-17
  0.040975 -1.99525e-17
   0.04341 -2.69365e-17
 0.0459873 -2.39811e-17
 0.0487154 1.63076e-16
  0.051603 5.50261e-18
 0.0546595 -5.88955e-17
 0.0578947 3.43061e-17
 0.0613191 8.42645e-18
 0.0649437 -7.27773e-17
 0.0687803 -1.17608e-17
 0.0728413 1.53938e-17
 0.0771397 5.18334e-17
 0.0816895 7.68949e-17
 0.0865054 -9.52877e-18
 0.0916029 1.48437e-17
 0.0969985 -2.22668e-17
   0.10271 7.50632e-19
  0.108755 5.46898e-17
  0.115153 9.76242e-17
  0.121926 4.58704e-18
  0.129095 -7.97785e-18
  0.136683 -3.16865e-19
  0.144715 -2.03452e-17
  0.153216 -1.41678e-17
  0.162214 -5.06482e-18
  0.171739 5.64481e-17
  0.181821 -6.99123e-18
  0.192492 7.22546e-17
  0.203788 1.32092e-17
  0.215744 5.99748e-17
  0.228399 -2.52549e-17
  0.241794 2.40104e-17
  0.255972 2.4702e-17
   0.27098 -5.86321e-17
  0.286865 1.25244e-16
  0.304824 2.39537e-17
  0.324407 -9.99953e-18
  0.343989 1.2916e-16
  0.363571 -2.58733e-17
  0.383154 -1.31891e-17
  0.402736 4.32203e-17
  0.422319 -3.55427e-17
  0.441901 1.99722e-17
  0.461484 6.89928e-18
  0.481066 5.68533e-17
  0.500648 7.5532e-17
  0.520231 1.33203e-17
  0.539813 -4.83339e-17
  0.559396 1.28835e-16
  0.578978 -7.02324e-17
   0.59856 -1.5819e-16
  0.618143 5.82049e-17
  0.637725 4.67454e-17
  0.657308 3.87411e-17
   0.67689 -1.03625e-16
  0.696473 5.00604e-17
  0.716055 4.70214e-17
  0.735637 1.6893e-18
   0.75522 -3.12071e-17
  0.774802 -7.43623e-17
  0.794385 4.43491e-17
  0.813967 5.33369e-17
  0.833549 1.46533e-16
  0.853132 -3.64471e-17
  0.872714 8.62908e-17
  0.892297 9.09354e-17
  0.911879 3.9238e-17
  0.931462 -5.90867e-17
  0.951044 -9.92829e-17
  0.970626 -2.33764e-17
  0.990209 -4.51431e-17
   1.00979 -6.0647e-18
   1.02937 -5.29498e-17
   1.04896 4.44132e-17
   1.06854 6.82703e-17
   1.08812 9.8414e-18
    1.1077 -1.8532e-17
   1.12729 4.76163e-17
   1.14687  2.091e-17
   1.16645 3.82646e-17
   1.18603 -9.3064e-18
   1.20562 5.39791e-17
    1.2252 2.63274e-17
   1.24478 7.20283e-17
   1.26436 -9.6852e-17
   1.28395 -2.49867e-17
   1.30353 6.33369e-17
   1.32311 -6.68293e-17
   1.34269 2.8994e-18
   1.36228 -3.44235e-17
   1.38186 1.94228e-17
   1.40144 9.49064e-18
   1.42102 -1.26298e-17
   1.44061 5.9049e-17
   1.46019 -5.61609e-18
   1.47977 -5.40987e-17
   1.49935 -7.64658e-17
   1.51894 1.25811e-17
   1.53852 -5.49326e-17
    1.5581 -1.0022e-17
   1.57768 -2.46835e-17
   1.59727 7.89642e-18
   1.61685 2.34519e-17
   1.63643 4.78337e-18
   1.65601 -1.81663e-17
    1.6756 5.44451e-17
   1.69518 5.60902e-18
   1.71314 -3.6791e-17
   1.72902 -6.80651e-17
   1.74403 -2.21578e-17
   1.75821 -1.66604e-17
    1.7716 -5.48767e-17
   1.78426 -4.00657e-17
   1.79621 -4.87941e-18
   1.80751 -1.38292e-17
   1.81818 1.00872e-17
   1.82826 -3.91738e-17
   1.83779 3.60368e-17
   1.84679 -1.02306e-17
   1.85529 5.15836e-17
   1.86332 6.69015e-17
   1.87091 3.11262e-17
   1.87808 2.08494e-17
   1.88485 -8.38628e-18
   1.89125 -5.59971e-17
   1.89729 2.40161e-17
     1.903 -2.4112e-17
    1.9084 -2.06234e-17
    1.9135 -3.65397e-17
   1.91831 2.37704e-17
   1.92286 -1.1539e-17
   1.92716 -7.55346e-17
   1.93122 -3.90887e-18
   1.93506 -3.71685e-17
   1.93868 3.15565e-17
   1.94211 -4.84085e-17
   1.94534 1.23499e-16
    1.9484 7.72453e-18
   1.95129 2.56021e-17
   1.95401 3.44742e-17
   1.95659 5.29921e-17
   1.95903 -5.18796e-17
   1.96133 -4.49206e-17
    1.9635 -1.74494e-17
   1.96555 2.72893e-18
   1.96749 6.37615e-18
   1.96933 1.01151e-17
   1.97106 2.13182e-17
   1.97269 4.58177e-17
   1.97424 -3.00131e-17
    1.9757 -7.50107e-17
   1.97708 -5.96366e-17
   1.97838 1.41003e-17
   1.97961 7.36442e-17
   1.98077 -5.57952e-17
   1.98187 2.58829e-17
   1.98291 3.99077e-17
   1.98389 6.09423e-17
   1.98482 1.02675e-16
   1.98569 -1.00997e-16
   1.98652 -2.01242e-17
    1.9873 -1.73084e-17
   1.98804 -1.86754e-17
   1.98874 -2.54241e-17
    1.9894 -2.27547e-17
   1.99002 -1.72567e-17
   1.99061 7.19355e-19
   1.99116 1.50269e-18
   1.99169 1.73839e-16
   1.99218 -8.62663e-17
   1.99265 -2.14603e-17
    1.9931 9.70855e-18
   1.99355 4.90162e-17
   1.99399 4.98301e-17
   1.99444 8.60923e-17
   1.99488 1.40473e-16
   1.99533 -5.24748e-17
   1.99577 -1.24748e-16
   1.99622 -3.70719e-17
   1.99666 1.43873e-17
   1.99711 -1.67533e-18
   1.99755 1.75499e-17
     1.998 6.77695e-17
   1.99844 2.70702e-18
   1.99889 -3.03145e-17
   1.99933 5.4472e-18
   1.99978 2.75463e-17
         2 2.80693e-17
