         0 -0.00242501
 0.0002225 -0.00238848
 0.0006675 -0.00691898
 0.0011125 -0.0109373
 0.0015575 -0.0142627
 0.0020025 -0.0167753
 0.0024475  -0.018408
 0.0028925 -0.0191259
 0.0033375 -0.0189104
 0.0037825 -0.0177569
 0.0042275 -0.0156828
 0.0046725 -0.0127425
 0.0051175 -0.00903917
 0.0055625 -0.00472724
 0.0060075 -3.9067e-06
 0.0064525 0.00490757
 0.0068975  0.0097783
 0.0073476  0.0144439
0.00781612  0.0188192
0.00831203  0.0227459
0.00883694   0.025982
0.00939255  0.0283095
0.00998065  0.0295579
 0.0106031  0.0296225
  0.011262  0.0284773
 0.0119594  0.0261826
 0.0126977  0.0228908
  0.013479  0.0188444
 0.0143061  0.0143519
 0.0151815  0.0097292
 0.0161082 0.00522754
  0.017089 0.00100213
 0.0181271 -0.00284557
  0.019226 -0.00619223
 0.0203891 -0.00889832
 0.0216203 -0.0109301
 0.0229234 -0.0123984
 0.0243028 -0.0134087
 0.0257628  -0.014035
 0.0273082 -0.0144636
  0.028944 -0.0148958
 0.0306754 -0.0153239
 0.0325081 -0.0155318
 0.0344479 -0.0153023
 0.0365012 -0.0147417
 0.0386746 -0.0145826
  0.040975 -0.0155212
   0.04341 -0.0171833
 0.0459873 -0.0185133
 0.0487154 -0.0187484
  0.051603 -0.0177791
 0.0546595  -0.015852
 0.0578947 -0.0134154
 0.0613191   -0.01056
 0.0649437 -0.00726938
 0.0687803 -0.00375707
 0.0728413 -0.000601601
 0.0771397 0.00165813
 0.0816895 0.00336775
 0.0865054 0.00508461
 0.0916029 0.00613814
 0.0969985 0.00569278
   0.10271 0.00412253
  0.108755 0.00242919
  0.115153 0.000846701
  0.121926 -0.00112837
  0.129095 -0.00246885
  0.136683 -0.00335847
  0.144715 -0.00531918
  0.153216 -0.00782232
  0.162214 -0.00943245
  0.171739 -0.00958308
  0.181821 -0.0089647
  0.192492 -0.00941671
  0.203788 -0.0101901
  0.215744 -0.0112361
  0.228399 -0.0123657
  0.241794  -0.013177
  0.255972 -0.0122373
   0.27098 -0.00979077
  0.286865 -0.0087514
  0.304824 -0.00808306
  0.324407 -0.00816592
  0.343989 -0.00926233
  0.363571 -0.00934223
  0.383154 -0.00932522
  0.402736 -0.00941139
  0.422319 -0.00776912
  0.441901 -0.00650019
  0.461484 -0.00524525
  0.481066 -0.00330236
  0.500648 -0.00144139
  0.520231 -0.000349792
  0.539813 -0.000127065
  0.559396 -0.000407499
  0.578978 -0.000672825
   0.59856 -0.000284248
  0.618143 0.000413034
  0.637725  0.0017235
  0.657308  0.0026082
   0.67689 0.00179964
  0.696473 0.000824308
  0.716055 0.000581585
  0.735637 0.000653439
   0.75522 0.000880168
  0.774802 0.00139798
  0.794385 0.00146024
  0.813967 0.00167982
  0.833549 0.00193485
  0.853132 0.00186904
  0.872714  0.0021586
  0.892297 0.00248505
  0.911879 0.00237457
  0.931462 0.00221045
  0.951044 0.00223237
  0.970626 0.00252071
  0.990209 0.00251304
   1.00979  0.0025615
   1.02937 0.00284487
   1.04896 0.00309078
   1.06854 0.00309235
   1.08812 0.00301086
    1.1077 0.00277109
   1.12729 0.00249596
   1.14687 0.00282583
   1.16645 0.00362798
   1.18603 0.00377004
   1.20562 0.00334327
    1.2252 0.00269334
   1.24478 0.00173118
   1.26436 0.000747686
   1.28395 -0.00110881
   1.30353 -0.00297837
   1.32311 -0.00454563
   1.34269 -0.00650386
   1.36228 -0.00797741
   1.38186 -0.00911301
   1.40144 -0.0101265
   1.42102 -0.0101545
   1.44061 -0.0101293
   1.46019 -0.0094722
   1.47977 -0.00881669
   1.49935 -0.00831311
   1.51894 -0.00803359
   1.53852 -0.00848307
    1.5581 -0.00904812
   1.57768 -0.00782866
   1.59727 -0.00663797
   1.61685 -0.0064564
   1.63643 -0.0064357
   1.65601  -0.005063
    1.6756 -0.00549286
   1.69518 -0.00772857
   1.71314 -0.0105436
   1.72902 -0.00968307
   1.74403 -0.00716499
   1.75821 -0.00536082
    1.7716 -0.00410753
   1.78426 -0.00254862
   1.79621 -0.000774103
   1.80751 0.00111946
   1.81818 0.00346545
   1.82826 0.00533101
   1.83779 0.00687768
   1.84679 0.00795311
   1.85529 0.00888762
   1.86332 0.00907226
   1.87091 0.00866824
   1.87808 0.00880381
   1.88485  0.0101937
   1.89125  0.0120659
   1.89729  0.0138172
     1.903   0.014536
    1.9084  0.0157665
    1.9135  0.0179745
   1.91831  0.0195913
   1.92286  0.0210057
   1.92716  0.0225224
   1.93122  0.0231687
   1.93506  0.0229111
   1.93868    0.02247
   1.94211  0.0221325
   1.94534  0.0218702
    1.9484  0.0217353
   1.95129   0.021667
   1.95401  0.0216676
   1.95659  0.0220285
   1.95903  0.0230091
   1.96133  0.0246273
    1.9635  0.0267943
   1.96555  0.0290137
   1.96749  0.0306903
   1.96933  0.0318601
   1.97106  0.0327096
   1.97269  0.0331088
   1.97424   0.033014
    1.9757  0.0326189
   1.97708  0.0320852
   1.97838  0.0315283
   1.97961  0.0310631
   1.98077  0.0307315
   1.98187   0.030479
   1.98291  0.0301939
   1.98389  0.0297356
   1.98482  0.0289555
   1.98569  0.0277322
   1.98652  0.0259948
    1.9873  0.0237186
   1.98804  0.0209149
   1.98874  0.0176317
    1.9894  0.0139549
   1.99002   0.010001
   1.99061 0.00590622
   1.99116 0.00181418
   1.99169 -0.00213576
   1.99218 -0.00582014
   1.99265 -0.00914128
    1.9931 -0.0120773
   1.99355 -0.0146422
   1.99399 -0.0167927
   1.99444 -0.0184692
   1.99488   -0.01964
   1.99533 -0.0203025
   1.99577  -0.020478
   1.99622  -0.020198
   1.99666 -0.0194852
   1.99711 -0.0183362
   1.99755 -0.0167175
     1.998 -0.0145838
   1.99844 -0.0119172
   1.99889 -0.00877256
   1.99933 -0.00530182
   1.99978 -0.00173815
         2 -0.00171721
