         0 3.39874e-13
 0.0002225 -1.8691e-17
 0.0006675 -6.16042e-17
 0.0011125 -1.16029e-16
 0.0015575 -2.38799e-16
 0.0020025 -2.33377e-16
 0.0024475 -2.2769e-16
 0.0028925 -2.97465e-16
 0.0033375 -4.60232e-16
 0.0037825 -4.62611e-16
 0.0042275 1.54109e-16
 0.0046725 -3.18544e-16
 0.0051175 -1.48974e-16
 0.0055625 -5.23284e-16
 0.0060075 -4.16184e-16
 0.0064525 -5.63917e-16
 0.0068975 -1.01474e-15
 0.0073476 -2.14254e-16
0.00781612 5.63599e-17
0.00831203 -2.59603e-16
0.00883694 -5.4649e-16
0.00939255 -2.39431e-16
0.00998065 9.38749e-18
 0.0106031 -4.30915e-16
  0.011262 -4.63415e-16
 0.0119594 2.18844e-16
 0.0126977 -2.24365e-16
  0.013479 1.81534e-16
 0.0143061 -8.23851e-16
 0.0151815 -1.30503e-15
 0.0161082 2.97803e-16
  0.017089 5.13504e-16
 0.0181271 2.36738e-16
  0.019226 6.20509e-16
 0.0203891 8.80992e-16
 0.0216203 3.89075e-16
 0.0229234 5.22464e-16
 0.0243028 2.85569e-16
 0.0257628 1.41033e-16
 0.0273082 -2.71063e-16
  0.028944 1.42842e-16
 0.0306754 1.11586e-15
 0.0325081 1.00734e-15
 0.0344479 -5.09565e-17
 0.0365012 4.21541e-16
 0.0386746 -3.35881e-16
  0.040975 1.05418e-16
   0.04341 1.34814e-16
 0.0459873 -6.02276e-16
 0.0487154 -1.81983e-16
  0.051603 -2.18034e-16
 0.0546595 -4.15223e-17
 0.0578947 -3.32109e-16
 0.0613191 -4.32056e-16
 0.0649437 -3.26103e-16
 0.0687803 2.90399e-16
 0.0728413 -2.56853e-16
 0.0771397 7.36922e-17
 0.0816895 5.44208e-16
 0.0865054 1.8565e-16
 0.0916029 -4.17069e-17
 0.0969985 2.39769e-16
   0.10271 -1.79895e-17
  0.108755 5.63743e-17
  0.115153 5.64316e-16
  0.121926 3.73855e-16
  0.129095 2.19943e-16
  0.136683 3.87568e-16
  0.144715 1.92541e-16
  0.153216 5.39531e-16
  0.162214 -8.53345e-17
  0.171739 -3.83398e-16
  0.181821 3.55517e-16
  0.192492 3.59002e-16
  0.203788 -4.05964e-17
  0.215744 -1.12352e-16
  0.228399 2.11481e-16
  0.241794 -2.49944e-16
  0.255972 -3.2212e-17
   0.27098 9.38075e-17
  0.286865 2.0795e-16
  0.304824 -4.22748e-17
  0.324407 7.28101e-17
  0.343989 -2.40328e-16
  0.363571 1.81096e-16
  0.383154 2.08066e-16
  0.402736 -8.09887e-17
  0.422319 1.79745e-16
  0.441901 -2.43139e-18
  0.461484 1.68197e-17
  0.481066 -9.48498e-17
  0.500648 4.70147e-17
  0.520231 -2.63806e-17
  0.539813 1.11721e-16
  0.559396  1.405e-16
  0.578978 7.07125e-17
   0.59856 4.11363e-17
  0.618143 -1.53663e-16
  0.637725 1.14756e-16
  0.657308 -7.05513e-17
   0.67689 -1.3296e-16
  0.696473 -3.31247e-16
  0.716055 4.96428e-17
  0.735637 4.26539e-17
   0.75522 -1.55036e-16
  0.774802 -1.90497e-16
  0.794385 -3.39977e-17
  0.813967 1.97031e-16
  0.833549 1.05873e-16
  0.853132 -1.58411e-16
  0.872714 3.86149e-17
  0.892297 5.95514e-17
  0.911879 -5.21362e-17
  0.931462 -4.16096e-17
  0.951044 -2.46303e-17
  0.970626 7.8467e-17
  0.990209 -1.1649e-17
   1.00979 2.36627e-17
   1.02937 2.74492e-17
   1.04896 -8.97027e-17
   1.06854 -1.49343e-16
   1.08812 -2.05732e-16
    1.1077 -5.60883e-17
   1.12729 7.85955e-18
   1.14687 3.5659e-18
   1.16645 5.50875e-17
   1.18603 6.13454e-17
   1.20562 8.01509e-17
    1.2252 1.81797e-16
   1.24478 -1.18733e-16
   1.26436 8.43564e-17
   1.28395 9.2388e-17
   1.30353 1.69845e-16
   1.32311 -2.33288e-16
   1.34269 -3.70549e-16
   1.36228 -9.4294e-17
   1.38186 -1.71355e-16
   1.40144 5.03225e-17
   1.42102 3.35287e-18
   1.44061 -1.59746e-16
   1.46019 -2.04073e-16
   1.47977 -9.79292e-17
   1.49935 -2.33023e-16
   1.51894 3.01947e-17
   1.53852 -2.06224e-16
    1.5581 1.7631e-16
   1.57768 -9.31988e-17
   1.59727 9.9673e-18
   1.61685 4.84363e-18
   1.63643 -2.81886e-17
   1.65601 -1.61735e-17
    1.6756 -6.86207e-17
   1.69518 -2.1948e-16
   1.71314 -1.55227e-16
   1.72902 -2.43516e-17
   1.74403 1.37408e-16
   1.75821 -1.02479e-16
    1.7716 7.29505e-17
   1.78426 -2.98789e-16
   1.79621 -3.05235e-16
   1.80751 -4.03168e-16
   1.81818 1.7703e-16
   1.82826 -2.86273e-16
   1.83779 -2.73821e-16
   1.84679 1.63544e-16
   1.85529 3.15464e-16
   1.86332 -1.29969e-16
   1.87091 -3.17416e-16
   1.87808 -1.71362e-16
   1.88485 4.62053e-17
   1.89125 -2.77367e-16
   1.89729 -4.66374e-16
     1.903 1.72304e-17
    1.9084 -4.06481e-16
    1.9135 -2.68486e-16
   1.91831 -1.23778e-16
   1.92286 4.01526e-16
   1.92716 2.35556e-16
   1.93122 2.75691e-16
   1.93506 -4.96731e-16
   1.93868 -6.00975e-16
   1.94211 -8.20368e-16
   1.94534 -4.44795e-16
    1.9484 -2.03653e-16
   1.95129 1.15279e-15
   1.95401 4.7443e-16
   1.95659 -9.64764e-16
   1.95903 -2.02603e-16
   1.96133 -1.73619e-16
    1.9635 -8.60939e-17
   1.96555 -3.89702e-16
   1.96749 -2.60021e-16
   1.96933 -1.18738e-15
   1.97106 -2.10361e-16
   1.97269 8.40253e-16
   1.97424 -6.96371e-16
    1.9757 1.98658e-15
   1.97708 -2.14425e-15
   1.97838 4.45852e-16
   1.97961 1.08249e-15
   1.98077 -1.24599e-15
   1.98187 -5.41163e-16
   1.98291 2.24671e-15
   1.98389 -5.28244e-16
   1.98482 -1.24947e-15
   1.98569 -9.5824e-16
   1.98652 -7.5554e-16
    1.9873 -1.87822e-15
   1.98804 1.32634e-15
   1.98874 -3.4309e-15
    1.9894 2.40698e-15
   1.99002 -3.37468e-15
   1.99061 3.02081e-15
   1.99116 -3.77941e-15
   1.99169 8.56376e-16
   1.99218 9.06115e-16
   1.99265 1.41452e-15
    1.9931 2.03637e-17
   1.99355 -3.86231e-15
   1.99399 -9.18136e-16
   1.99444 1.81333e-15
   1.99488 -2.16507e-15
   1.99533 4.59339e-16
   1.99577 -4.90629e-16
   1.99622 1.24412e-15
   1.99666 -9.53952e-16
   1.99711 2.60916e-17
   1.99755 -1.19619e-15
     1.998 5.35167e-16
   1.99844 -4.60946e-16
   1.99889 -1.03091e-15
   1.99933 5.65112e-16
   1.99978 -3.86791e-17
         2 -3.53631e-17
