         0  -0.778201
 0.0002225  -0.788173
 0.0006675  -0.805194
 0.0011125  -0.815439
 0.0015575   -0.81626
 0.0020025  -0.806346
 0.0024475    -0.7858
 0.0028925  -0.755897
 0.0033375    -0.7186
 0.0037825  -0.676058
 0.0042275  -0.630252
 0.0046725  -0.582859
 0.0051175  -0.535259
 0.0055625  -0.488597
 0.0060075  -0.443819
 0.0064525  -0.401685
 0.0068975  -0.362753
 0.0073476  -0.326965
0.00781612  -0.293716
0.00831203  -0.262996
0.00883694  -0.235198
0.00939255  -0.210484
0.00998065  -0.188742
 0.0106031  -0.169625
  0.011262  -0.152656
 0.0119594  -0.137362
 0.0126977  -0.123423
  0.013479  -0.110773
 0.0143061 -0.0996327
 0.0151815  -0.090416
 0.0161082 -0.0835714
  0.017089 -0.0793377
 0.0181271 -0.0774029
  0.019226 -0.0767487
 0.0203891 -0.0760765
 0.0216203 -0.0746093
 0.0229234 -0.0722799
 0.0243028 -0.0690294
 0.0257628 -0.0643715
 0.0273082 -0.0578254
  0.028944 -0.0501964
 0.0306754 -0.0431478
 0.0325081 -0.0368175
 0.0344479 -0.0311592
 0.0365012 -0.0273364
 0.0386746 -0.0247747
  0.040975 -0.0216741
   0.04341 -0.0183113
 0.0459873 -0.0159352
 0.0487154 -0.0148367
  0.051603 -0.0138594
 0.0546595  -0.011344
 0.0578947 -0.00712358
 0.0613191 -0.00413537
 0.0649437 -0.00332002
 0.0687803 -0.0023543
 0.0728413 -0.00240628
 0.0771397 -0.00387091
 0.0816895 -0.00476958
 0.0865054 -0.00371533
 0.0916029 -0.000622829
 0.0969985 0.00280076
   0.10271 0.00535789
  0.108755  0.0057296
  0.115153 0.00438348
  0.121926 0.00284755
  0.129095 0.00327807
  0.136683  0.0027225
  0.144715 -0.000266141
  0.153216 -0.00453211
  0.162214 -0.00798756
  0.171739 -0.00772859
  0.181821 -0.00729453
  0.192492 -0.00657757
  0.203788 -0.00386331
  0.215744 -0.000956385
  0.228399 0.00135629
  0.241794 0.00240921
  0.255972 0.00127747
   0.27098 0.000496739
  0.286865 -0.000673291
  0.304824 -0.00164556
  0.324407 -0.00122197
  0.343989 -0.00252592
  0.363571 -0.00108673
  0.383154 -0.00144737
  0.402736 -0.00338999
  0.422319 -0.00339094
  0.441901 -0.00261563
  0.461484 -0.00139683
  0.481066 0.00153079
  0.500648  0.0032661
  0.520231 0.00383986
  0.539813 0.00451129
  0.559396 0.00516837
  0.578978 0.00516308
   0.59856  0.0040081
  0.618143 0.00107659
  0.637725 0.000346494
  0.657308 0.000639439
   0.67689 0.00086261
  0.696473 0.00136372
  0.716055 0.000247198
  0.735637 0.000304097
   0.75522 0.000686571
  0.774802 0.00105732
  0.794385 0.00163322
  0.813967 0.00200816
  0.833549   0.001584
  0.853132 0.00115965
  0.872714 0.00122237
  0.892297 0.00151283
  0.911879 0.00130983
  0.931462 0.000722474
  0.951044 -0.000206169
  0.970626 -0.00102322
  0.990209 -0.000946028
   1.00979 -0.000686457
   1.02937 -0.00103367
   1.04896 -0.00144998
   1.06854 -0.00131664
   1.08812 -0.00098792
    1.1077 -0.000789339
   1.12729 -0.000793351
   1.14687 -0.000678164
   1.16645 -0.000990962
   1.18603 -0.000952743
   1.20562 -0.00158359
    1.2252 -0.00256679
   1.24478 -0.00260087
   1.26436 -0.00195638
   1.28395 0.000223081
   1.30353 0.00217637
   1.32311   0.003029
   1.34269 0.00357022
   1.36228  0.0049535
   1.38186 0.00714276
   1.40144 0.00847071
   1.42102 0.00661435
   1.44061 0.00435801
   1.46019 0.00320806
   1.47977 0.00234221
   1.49935 0.00257126
   1.51894 0.00385214
   1.53852 0.00441502
    1.5581 0.00260601
   1.57768 0.00196087
   1.59727 0.00282811
   1.61685 0.00396405
   1.63643 0.00619323
   1.65601 0.00597973
    1.6756 0.00499765
   1.69518 0.00501508
   1.71314 0.00497325
   1.72902  0.0046442
   1.74403 0.00404427
   1.75821 0.00460768
    1.7716   0.005997
   1.78426 0.00662202
   1.79621 0.00494848
   1.80751 0.000566908
   1.81818 -0.00242834
   1.82826 -0.00431723
   1.83779 -0.0044726
   1.84679 -0.00197179
   1.85529 -0.000823106
   1.86332 -0.00244365
   1.87091 -0.00405258
   1.87808 -0.00498128
   1.88485 -0.00647297
   1.89125 -0.00603416
   1.89729 -0.0020432
     1.903 0.00309647
    1.9084 0.00470932
    1.9135 0.00436794
   1.91831 0.00615006
   1.92286 0.00729669
   1.92716 0.00703192
   1.93122 0.00627049
   1.93506 0.00492289
   1.93868 0.00543578
   1.94211 0.00730626
   1.94534 0.00907059
    1.9484  0.0109339
   1.95129  0.0124674
   1.95401  0.0132565
   1.95659  0.0140794
   1.95903  0.0151729
   1.96133  0.0168679
    1.9635  0.0196529
   1.96555  0.0237613
   1.96749  0.0288497
   1.96933  0.0337023
   1.97106  0.0368934
   1.97269   0.038815
   1.97424  0.0412887
    1.9757  0.0456166
   1.97708  0.0516385
   1.97838  0.0586322
   1.97961  0.0663017
   1.98077  0.0743012
   1.98187  0.0821029
   1.98291  0.0893382
   1.98389  0.0957404
   1.98482    0.10136
   1.98569   0.106573
   1.98652   0.111828
    1.9873   0.117579
   1.98804   0.124242
   1.98874   0.132079
    1.9894   0.141105
   1.99002   0.151067
   1.99061     0.1615
   1.99116    0.17183
   1.99169   0.181501
   1.99218   0.190074
   1.99265   0.197292
    1.9931   0.203086
   1.99355   0.207644
   1.99399   0.211178
   1.99444    0.21396
   1.99488   0.216432
   1.99533   0.219158
   1.99577   0.222702
   1.99622   0.227441
   1.99666   0.233326
   1.99711   0.239636
   1.99755   0.244832
     1.998   0.246642
   1.99844   0.242475
   1.99889   0.230129
   1.99933   0.208546
   1.99978    0.17836
         2   0.160799
