         0 -9.22559e-07
  0.000445 -9.22559e-07
  0.001335 -5.22246e-06
  0.002225 -1.22824e-05
  0.003115 -2.06774e-05
  0.004005 -2.88233e-05
  0.004895 -3.5383e-05
  0.005785 -3.95781e-05
  0.006675 -4.12644e-05
0.00756867 -4.08283e-05
0.00852095 -3.88708e-05
0.00958982 -3.57482e-05
 0.0107896 -3.24909e-05
 0.0121362 -3.03187e-05
 0.0136477 -2.97544e-05
 0.0153442 -3.05295e-05
 0.0172484 -3.26745e-05
 0.0193858 -3.65857e-05
 0.0217849 -4.05082e-05
 0.0244777 -4.14671e-05
 0.0275001 -3.94327e-05
 0.0308926 -3.70217e-05
 0.0347005 -3.29142e-05
 0.0389746 -2.36905e-05
 0.0437719 -1.37492e-05
 0.0491566 -6.16835e-06
 0.0552005 7.35413e-07
 0.0619844 2.70007e-06
 0.0695988  2.324e-06
 0.0781455 1.25079e-05
 0.0877386 1.97144e-05
 0.0985062 1.19935e-05
  0.110592 2.02434e-05
  0.124158 1.88994e-05
  0.139384 2.19714e-05
  0.156474 1.50823e-05
  0.175657 7.16373e-06
  0.197189 1.13811e-05
  0.221357 1.43765e-05
  0.248483 9.59757e-06
  0.278931 1.98371e-05
  0.314615 1.82634e-05
   0.35378 9.79264e-06
  0.392945 1.99562e-06
   0.43211 9.71602e-06
  0.471275 -1.22014e-06
   0.51044 1.22673e-05
  0.549604 4.47236e-06
  0.588769 1.0463e-05
  0.627934 1.13497e-05
  0.667099 3.71059e-06
  0.706264 -1.81557e-07
  0.745429 1.15639e-06
  0.784593 -3.55076e-06
  0.823758 -1.12957e-06
  0.862923 -3.47814e-07
  0.902088 4.14043e-06
  0.941253 -7.96651e-06
  0.980418 -6.16525e-06
   1.01958 -7.65098e-06
   1.05875 -6.96217e-06
   1.09791 -8.74186e-06
   1.13708 -7.6942e-06
   1.17624 -7.40072e-06
   1.21541 -5.28985e-06
   1.25457 -2.39784e-06
   1.29374 -4.0776e-06
    1.3329 3.62082e-06
   1.37207 1.34975e-06
   1.41123 2.73701e-06
    1.4504 -3.30536e-06
   1.48956 -4.56238e-06
   1.52873 -2.98509e-06
   1.56789 -3.03997e-06
   1.60706 -2.81659e-06
   1.64622 -1.07084e-05
   1.68539 -5.03118e-06
   1.72107 -8.54042e-06
   1.75152 -1.48616e-05
   1.77865 -1.35406e-05
   1.80281 -7.50927e-06
   1.82434 -2.13503e-05
   1.84353 -6.75166e-06
   1.86062 -1.06212e-05
   1.87584 -1.55638e-05
   1.88941 -1.13729e-05
    1.9015 -2.81871e-06
   1.91226 -6.75221e-06
   1.92186 -4.2741e-06
    1.9304 -1.03816e-07
   1.93802 7.77625e-07
    1.9448 -8.11353e-06
   1.95084 -1.28361e-05
   1.95623 -1.19778e-05
   1.96103 -7.75565e-06
    1.9653 9.63252e-06
   1.96911 2.55765e-05
    1.9725 2.71711e-05
   1.97552 2.37442e-05
   1.97822 2.57225e-05
   1.98061 3.37873e-05
   1.98275 4.57148e-05
   1.98466 5.70888e-05
   1.98635 6.33706e-05
   1.98786 6.29427e-05
   1.98921 5.71487e-05
   1.99041 4.86836e-05
   1.99148 3.99678e-05
   1.99243 3.24646e-05
   1.99333 2.64527e-05
   1.99421 2.1394e-05
    1.9951 1.70187e-05
     1.996 1.30197e-05
   1.99689 9.18694e-06
   1.99777 5.57414e-06
   1.99867 2.51086e-06
   1.99956 4.96095e-07
         2 4.96095e-07
