         0 -0.000957523
  0.000445 -0.000957523
  0.001335 -0.00660262
  0.002225 -0.0177505
  0.003115 -0.0336858
  0.004005 -0.0528225
  0.004895  -0.072961
  0.005785 -0.0917772
  0.006675  -0.107337
0.00756867  -0.118489
0.00852095  -0.125134
0.00958982   -0.12659
 0.0107896  -0.122234
 0.0121362  -0.112458
 0.0136477 -0.0986233
 0.0153442 -0.0826779
 0.0172484 -0.0665875
 0.0193858 -0.0518466
 0.0217849 -0.0392645
 0.0244777 -0.0290386
 0.0275001 -0.0209863
 0.0308926 -0.0147696
 0.0347005 -0.0100284
 0.0389746 -0.0064324
 0.0437719 -0.0037213
 0.0491566 -0.00171432
 0.0552005 -0.00026566
 0.0619844 0.000747166
 0.0695988 0.00139993
 0.0781455 0.00177548
 0.0877386 0.00197626
 0.0985062 0.00206111
  0.110592 0.00208964
  0.124158 0.00209815
  0.139384 0.00211584
  0.156474 0.00210559
  0.175657 0.00211767
  0.197189 0.00210736
  0.221357  0.0021343
  0.248483 0.00208814
  0.278931 0.00215193
  0.314615 0.00213765
   0.35378 0.00212551
  0.392945 0.00215585
   0.43211 0.00213863
  0.471275 0.00214228
   0.51044 0.00214755
  0.549604 0.00215751
  0.588769 0.00215377
  0.627934 0.00215242
  0.667099 0.00215665
  0.706264 0.00215765
  0.745429 0.00215509
  0.784593 0.00215408
  0.823758 0.00214992
  0.862923  0.0021427
  0.902088  0.0021425
  0.941253 0.00213611
  0.980418 0.00213173
   1.01958 0.00213119
   1.05875  0.0021354
   1.09791 0.00213661
   1.13708 0.00213619
   1.17624 0.00213583
   1.21541  0.0021482
   1.25457 0.00214151
   1.29374 0.00214391
    1.3329 0.00213922
   1.37207 0.00215747
   1.41123 0.00214023
    1.4504 0.00215694
   1.48956 0.00214366
   1.52873  0.0021377
   1.56789  0.0021169
   1.60706 0.00212943
   1.64622 0.00209496
   1.68539 0.00213798
   1.72107 0.00213679
   1.75152 0.00210313
   1.77865 0.00213042
   1.80281 0.00211924
   1.82434 0.00211665
   1.84353  0.0021062
   1.86062 0.00209981
   1.87584 0.00209696
   1.88941 0.00209531
    1.9015 0.00206098
   1.91226 0.00197441
   1.92186 0.00178754
    1.9304 0.00141517
   1.93802 0.000757931
    1.9448 -0.000263769
   1.95084 -0.00172497
   1.95623 -0.00371994
   1.96103  -0.006418
    1.9653 -0.0100166
   1.96911 -0.0147547
    1.9725 -0.0209615
   1.97552 -0.0290064
   1.97822 -0.0392365
   1.98061 -0.0518301
   1.98275 -0.0665728
   1.98466 -0.0826437
   1.98635 -0.0985444
   1.98786   -0.11231
   1.98921     -0.122
   1.99041  -0.126264
   1.99148  -0.124725
   1.99243  -0.118021
   1.99333  -0.106837
   1.99421 -0.0912814
    1.9951  -0.072512
     1.996 -0.0524593
   1.99689 -0.0334319
   1.99777 -0.0176066
   1.99867 -0.0065459
   1.99956 -0.000948892
         2 -0.000948892
