         0 -4.91014e-21
  0.000445 -2.30946e-20
  0.001335 -1.27663e-19
  0.002225 -6.2426e-19
  0.003115 5.92061e-19
  0.004005 -1.72086e-18
  0.004895 1.53089e-20
  0.005785 7.41325e-19
  0.006675 -1.80415e-18
0.00756867 4.24218e-18
0.00852095 -2.11751e-18
0.00958982 -2.51434e-18
 0.0107896 -4.07181e-18
 0.0121362 -1.17559e-18
 0.0136477 -2.81553e-18
 0.0153442 1.34932e-18
 0.0172484 -1.82982e-18
 0.0193858 -4.24364e-18
 0.0217849 -1.07067e-18
 0.0244777 -3.30277e-18
 0.0275001 -1.94671e-18
 0.0308926 1.38979e-18
 0.0347005 -2.53359e-17
 0.0389746 -2.17625e-18
 0.0437719 3.87686e-18
 0.0491566 7.94226e-19
 0.0552005 -4.53126e-18
 0.0619844 8.70743e-18
 0.0695988 3.30867e-18
 0.0781455 6.62113e-18
 0.0877386 -1.53049e-17
 0.0985062 2.38073e-19
  0.110592 -1.22411e-18
  0.124158 8.87121e-18
  0.139384 9.99745e-18
  0.156474 7.23314e-18
  0.175657 4.3468e-18
  0.197189 -4.16949e-18
  0.221357 -4.8548e-18
  0.248483 -4.25742e-18
  0.278931 -2.57257e-17
  0.314615 6.72959e-18
   0.35378 -9.64109e-19
  0.392945 -1.6738e-18
   0.43211 -7.24431e-19
  0.471275 2.93271e-18
   0.51044 1.5052e-17
  0.549604 -9.4365e-18
  0.588769 8.91798e-18
  0.627934 7.89569e-19
  0.667099 -1.63396e-17
  0.706264 -5.05439e-18
  0.745429 5.19419e-18
  0.784593 3.45227e-18
  0.823758 -1.03154e-17
  0.862923 -1.29034e-17
  0.902088 -5.99535e-18
  0.941253 1.15572e-17
  0.980418 6.05781e-18
   1.01958 1.83817e-17
   1.05875 3.46998e-18
   1.09791 -1.80257e-17
   1.13708 -6.59695e-18
   1.17624 -7.50473e-18
   1.21541 2.12409e-17
   1.25457 -8.89834e-18
   1.29374 -1.81315e-17
    1.3329 2.12278e-17
   1.37207 -7.75409e-18
   1.41123 7.69416e-18
    1.4504 1.04096e-17
   1.48956 -2.53371e-17
   1.52873 2.28769e-17
   1.56789 4.58703e-18
   1.60706 -3.57409e-17
   1.64622 2.75065e-17
   1.68539 1.03011e-18
   1.72107 -9.06236e-18
   1.75152 -5.88115e-19
   1.77865 2.66138e-18
   1.80281 -2.23065e-18
   1.82434 -2.72028e-19
   1.84353 -3.78239e-19
   1.86062 3.74704e-18
   1.87584 2.40157e-18
   1.88941 -6.14024e-18
    1.9015 -3.44178e-19
   1.91226 6.68473e-18
   1.92186 1.86425e-17
    1.9304 5.17554e-18
   1.93802 -1.26568e-18
    1.9448 4.23703e-18
   1.95084 -3.69574e-18
   1.95623 1.47642e-18
   1.96103 3.59315e-18
    1.9653 -5.01994e-18
   1.96911 3.41737e-18
    1.9725 -4.2967e-18
   1.97552 4.07625e-19
   1.97822 -6.85139e-18
   1.98061 -1.52524e-18
   1.98275 -4.04461e-18
   1.98466 -3.61343e-18
   1.98635 -4.25937e-18
   1.98786 -9.08648e-20
   1.98921 -2.95253e-18
   1.99041 4.73316e-18
   1.99148 4.20435e-18
   1.99243 7.73347e-18
   1.99333 -5.0197e-18
   1.99421 7.67612e-18
    1.9951  1.955e-18
     1.996 -3.11019e-18
   1.99689 1.94508e-18
   1.99777 2.81893e-18
   1.99867 1.76325e-18
   1.99956 4.87585e-19
         2 4.84562e-19
