         0  3.932e-19
  0.000445 4.60104e-18
  0.001335 2.05874e-17
  0.002225 1.13243e-17
  0.003115 9.7089e-19
  0.004005 2.37504e-17
  0.004895 3.01975e-17
  0.005785 8.68783e-17
  0.006675 2.39719e-17
0.00756867 -4.06342e-19
0.00852095 3.84137e-19
0.00958982 3.58752e-17
 0.0107896 2.73959e-17
 0.0121362 3.9575e-17
 0.0136477 -2.23577e-17
 0.0153442 1.25638e-17
 0.0172484 -1.75571e-17
 0.0193858 3.94884e-17
 0.0217849 3.50692e-17
 0.0244777 6.66467e-17
 0.0275001 1.28392e-17
 0.0308926 -5.8259e-18
 0.0347005 -7.92333e-17
 0.0389746 1.84697e-17
 0.0437719 4.61092e-17
 0.0491566 -3.1013e-17
 0.0552005 3.30047e-17
 0.0619844 -1.63314e-17
 0.0695988 3.57103e-17
 0.0781455 5.52924e-17
 0.0877386 -9.99051e-17
 0.0985062 3.30863e-17
  0.110592 2.67791e-17
  0.124158 2.6924e-17
  0.139384 -5.13789e-17
  0.156474 -1.11916e-17
  0.175657 7.26724e-17
  0.197189 2.96319e-18
  0.221357 6.15238e-17
  0.248483  1.043e-17
  0.278931 5.00297e-17
  0.314615 5.14508e-17
   0.35378 -3.24703e-17
  0.392945 3.40915e-17
   0.43211 -3.94559e-17
  0.471275 7.42253e-18
   0.51044 -1.34648e-17
  0.549604 1.5206e-17
  0.588769 -4.91188e-17
  0.627934 1.0808e-18
  0.667099 6.26956e-17
  0.706264 2.22127e-17
  0.745429 -4.6841e-18
  0.784593 -1.99836e-17
  0.823758 7.97036e-19
  0.862923 -7.86177e-20
  0.902088 2.00961e-17
  0.941253 -2.04198e-17
  0.980418 -2.85503e-17
   1.01958 -1.99343e-17
   1.05875 2.6569e-17
   1.09791 -3.2875e-17
   1.13708 -6.56745e-18
   1.17624 -1.20542e-18
   1.21541 2.59953e-17
   1.25457 -3.40461e-17
   1.29374 4.75061e-18
    1.3329 -5.09632e-17
   1.37207 -7.43156e-20
   1.41123 -3.0892e-17
    1.4504 2.65524e-17
   1.48956 -1.07367e-17
   1.52873 2.71384e-17
   1.56789 2.57369e-17
   1.60706 2.82657e-17
   1.64622 -3.72801e-17
   1.68539 -2.53089e-18
   1.72107 6.77695e-17
   1.75152 -2.30145e-17
   1.77865 -7.12905e-17
   1.80281 1.71196e-17
   1.82434 -9.71223e-18
   1.84353 5.38314e-17
   1.86062 2.39403e-17
   1.87584 1.76392e-17
   1.88941 6.26388e-17
    1.9015 2.20812e-17
   1.91226 -3.88412e-18
   1.92186 3.41194e-17
    1.9304 -5.32602e-17
   1.93802 7.4441e-17
    1.9448 -2.25148e-17
   1.95084 -1.70131e-17
   1.95623 6.11888e-17
   1.96103 -3.89644e-17
    1.9653 -2.83251e-17
   1.96911 -1.39916e-17
    1.9725 -2.45026e-18
   1.97552 -3.6896e-17
   1.97822 1.75737e-17
   1.98061 -3.25739e-17
   1.98275 -1.39005e-16
   1.98466 -1.0922e-16
   1.98635 -2.02411e-16
   1.98786  7.569e-16
   1.98921 -4.1069e-16
   1.99041 -5.82481e-16
   1.99148 3.99577e-16
   1.99243 -5.02909e-17
   1.99333  2.029e-16
   1.99421 -5.61528e-16
    1.9951 -8.19067e-18
     1.996 -2.57027e-16
   1.99689 1.10989e-16
   1.99777 -7.54813e-18
   1.99867 -1.08532e-16
   1.99956 -6.33729e-18
         2 -3.60914e-18
