         0 -6.50389e-19
  0.000445 -3.13617e-18
  0.001335 -7.01186e-18
  0.002225 -1.01913e-17
  0.003115 -1.08954e-17
  0.004005 -1.74232e-17
  0.004895 -1.86155e-17
  0.005785 -2.0083e-17
  0.006675 -2.50092e-17
0.00756867 -1.98629e-17
0.00852095 -2.54641e-17
0.00958982 -1.76741e-17
 0.0107896 -1.9455e-17
 0.0121362 -2.15079e-17
 0.0136477 -1.77597e-17
 0.0153442 -1.81663e-17
 0.0172484 -7.96148e-18
 0.0193858 -1.77981e-17
 0.0217849 -5.10564e-18
 0.0244777 -1.7882e-17
 0.0275001 -1.43631e-17
 0.0308926 -1.33467e-17
 0.0347005 -1.08579e-17
 0.0389746 9.68108e-18
 0.0437719 2.88297e-18
 0.0491566 3.63251e-19
 0.0552005 1.15473e-17
 0.0619844 -2.38393e-18
 0.0695988 -4.55948e-18
 0.0781455 8.61297e-18
 0.0877386 2.10248e-19
 0.0985062 -1.40004e-17
  0.110592 -1.72839e-18
  0.124158 -1.05783e-17
  0.139384 -8.62338e-18
  0.156474 -2.23765e-18
  0.175657 -1.59588e-18
  0.197189 5.81507e-18
  0.221357 1.01084e-17
  0.248483 1.99138e-18
  0.278931 2.89182e-18
  0.314615 3.4257e-18
   0.35378 -2.91558e-18
  0.392945 1.09149e-18
   0.43211 -1.02855e-18
  0.471275 4.9212e-18
   0.51044 6.32102e-18
  0.549604 -3.74508e-18
  0.588769 -5.94781e-18
  0.627934 8.09082e-18
  0.667099 -3.48426e-18
  0.706264 -6.46948e-19
  0.745429 4.23477e-18
  0.784593 3.16498e-18
  0.823758 -1.21791e-18
  0.862923 1.87956e-18
  0.902088 1.60324e-18
  0.941253 -1.33836e-19
  0.980418 3.00181e-18
   1.01958 1.12306e-18
   1.05875 -1.41796e-19
   1.09791 -1.28952e-18
   1.13708 3.49833e-19
   1.17624 -1.95719e-18
   1.21541 -3.28214e-18
   1.25457 -5.99703e-18
   1.29374 -7.93532e-19
    1.3329 -4.075e-18
   1.37207 6.28109e-18
   1.41123 7.50025e-19
    1.4504 -1.01814e-18
   1.48956 6.28482e-19
   1.52873 -5.14385e-18
   1.56789 -3.68389e-18
   1.60706 1.53658e-18
   1.64622 4.81955e-18
   1.68539 7.83741e-18
   1.72107 -3.01027e-18
   1.75152 -9.34319e-18
   1.77865 2.50217e-19
   1.80281 -5.0434e-18
   1.82434 4.06957e-18
   1.84353 2.49356e-18
   1.86062 -1.14785e-17
   1.87584 -1.57549e-18
   1.88941 -4.68188e-18
    1.9015 -2.07642e-18
   1.91226 -1.1403e-17
   1.92186 -9.86378e-18
    1.9304 -8.64926e-18
   1.93802 -7.04839e-18
    1.9448 -1.79082e-17
   1.95084 2.85848e-18
   1.95623 -2.01628e-17
   1.96103 8.57189e-18
    1.9653 -2.46822e-17
   1.96911 -1.16344e-17
    1.9725 -7.17246e-18
   1.97552 2.0051e-17
   1.97822 -2.92355e-17
   1.98061 4.26422e-17
   1.98275 -7.26622e-17
   1.98466 9.97234e-17
   1.98635 -1.05248e-16
   1.98786 5.00102e-17
   1.98921 2.02911e-17
   1.99041 8.5968e-17
   1.99148 -6.89341e-17
   1.99243 -2.96767e-17
   1.99333 -7.73312e-17
   1.99421 7.43454e-17
    1.9951 -1.53519e-17
     1.996 4.1005e-17
   1.99689 1.35273e-17
   1.99777 1.74857e-18
   1.99867 4.23751e-18
   1.99956 1.0602e-17
         2 9.1057e-18
