         0 -3.33181e-21
  0.000445 -7.18176e-21
  0.001335 -1.21821e-19
  0.002225 -1.1494e-19
  0.003115 -4.78285e-20
  0.004005 1.74357e-19
  0.004895 -5.889e-19
  0.005785 -1.25057e-18
  0.006675 -5.98488e-19
0.00756867 -2.67867e-19
0.00852095 4.05283e-19
0.00958982 -1.47319e-18
 0.0107896 -2.48438e-18
 0.0121362 -3.9411e-18
 0.0136477 -3.72377e-18
 0.0153442 -2.00706e-18
 0.0172484 -1.61595e-18
 0.0193858 -5.88325e-18
 0.0217849 -8.58907e-18
 0.0244777 -1.24631e-18
 0.0275001 2.55702e-18
 0.0308926 1.2406e-18
 0.0347005 2.68701e-18
 0.0389746 -3.70602e-18
 0.0437719 4.63462e-19
 0.0491566 1.3798e-19
 0.0552005 -7.83002e-18
 0.0619844 -5.29757e-18
 0.0695988 -3.74492e-18
 0.0781455 -4.75731e-18
 0.0877386 5.70238e-19
 0.0985062 -3.27308e-18
  0.110592 -2.67217e-18
  0.124158 -7.75199e-18
  0.139384 -3.94816e-18
  0.156474 -5.28987e-18
  0.175657 -6.90364e-18
  0.197189 -3.45012e-18
  0.221357 3.4725e-18
  0.248483 5.83859e-18
  0.278931 1.41834e-18
  0.314615 5.9186e-18
   0.35378 -1.08621e-18
  0.392945 -5.38521e-18
   0.43211 1.05294e-18
  0.471275 -9.92106e-19
   0.51044 4.19675e-18
  0.549604 -3.93329e-18
  0.588769 -7.57814e-19
  0.627934 3.85907e-19
  0.667099 1.43378e-18
  0.706264 2.54182e-18
  0.745429 5.63993e-19
  0.784593 8.69305e-19
  0.823758 2.3195e-18
  0.862923 -1.1606e-18
  0.902088 -1.48423e-19
  0.941253 8.58653e-19
  0.980418 -3.96338e-18
   1.01958 -1.3798e-18
   1.05875 -1.04389e-18
   1.09791 3.75603e-18
   1.13708 2.19731e-18
   1.17624 6.8983e-19
   1.21541 2.89907e-19
   1.25457 1.53072e-19
   1.29374 5.53644e-18
    1.3329 3.99767e-18
   1.37207 3.46536e-18
   1.41123 7.68548e-18
    1.4504 4.9959e-18
   1.48956 7.01425e-18
   1.52873 -1.16507e-17
   1.56789 -2.3484e-18
   1.60706 6.34794e-18
   1.64622 -3.89376e-18
   1.68539 -6.56798e-18
   1.72107 5.18474e-19
   1.75152 7.55857e-18
   1.77865 9.87613e-19
   1.80281 1.24484e-18
   1.82434 -1.6015e-18
   1.84353 8.94104e-18
   1.86062 -1.37654e-18
   1.87584 1.93109e-18
   1.88941 9.79342e-18
    1.9015 8.50778e-18
   1.91226 5.00711e-18
   1.92186 -1.22208e-18
    1.9304 -6.79914e-18
   1.93802 3.81126e-18
    1.9448 2.69521e-18
   1.95084 -1.06733e-17
   1.95623 1.40171e-17
   1.96103 -1.89943e-17
    1.9653 -5.38278e-18
   1.96911 8.12128e-19
    1.9725 -9.29916e-18
   1.97552 -1.92153e-17
   1.97822 1.79936e-18
   1.98061 -9.5951e-18
   1.98275 -6.23933e-18
   1.98466 -4.49469e-18
   1.98635 -8.8774e-18
   1.98786 4.69781e-17
   1.98921 -3.26363e-17
   1.99041 -1.81355e-17
   1.99148 1.58242e-17
   1.99243 -7.88836e-18
   1.99333 7.93261e-18
   1.99421 -1.54766e-17
    1.9951 4.53446e-18
     1.996 -3.1518e-18
   1.99689 3.33418e-18
   1.99777 -2.37762e-18
   1.99867 -3.76951e-19
   1.99956 3.80161e-19
         2 3.89679e-19
