         0 0.000562101
  0.000445 0.000562101
  0.001335 0.000443871
  0.002225 0.000166177
  0.003115 -8.96332e-05
  0.004005 -0.000196477
  0.004895 -0.000227933
  0.005785 -0.000171983
  0.006675 8.43257e-06
0.00756867 0.00010395
0.00852095 -6.85728e-05
0.00958982 -0.000375934
 0.0107896 -0.000728294
 0.0121362 -0.00115813
 0.0136477 -0.00165079
 0.0153442 -0.00211258
 0.0172484 -0.00240755
 0.0193858 -0.00241248
 0.0217849 -0.00206715
 0.0244777 -0.00140892
 0.0275001 -0.000568671
 0.0308926 0.000301698
 0.0347005 0.00108601
 0.0389746 0.00165023
 0.0437719 0.00176059
 0.0491566 0.00150197
 0.0552005 0.00106877
 0.0619844 0.000609245
 0.0695988 0.000141092
 0.0781455 -0.000164275
 0.0877386 -0.000403857
 0.0985062 -0.000291838
  0.110592 -0.000404252
  0.124158 -0.000127247
  0.139384 -0.000274631
  0.156474 0.00011919
  0.175657 -0.0002189
  0.197189 0.000250344
  0.221357 -0.000207508
  0.248483 -0.000105506
  0.278931 0.000925691
  0.314615 -0.00106109
   0.35378 0.000378148
  0.392945 0.000235602
   0.43211 -0.000174218
  0.471275 0.000120915
   0.51044 -4.31011e-05
  0.549604 7.95854e-05
  0.588769 -8.4842e-05
  0.627934 0.000128462
  0.667099 -7.61192e-05
  0.706264 6.57779e-05
  0.745429 -9.63473e-06
  0.784593 -2.67506e-05
  0.823758 2.2512e-05
  0.862923 4.97804e-05
  0.902088 -1.86197e-05
  0.941253 -5.86091e-05
  0.980418 9.60778e-05
   1.01958 -8.48215e-05
   1.05875 4.21805e-05
   1.09791 -3.24412e-05
   1.13708 8.19369e-06
   1.17624 2.06947e-05
   1.21541 4.79241e-06
   1.25457 -1.18498e-05
   1.29374 3.43576e-05
    1.3329 -1.70117e-05
   1.37207 8.70995e-05
   1.41123 -9.53194e-05
    1.4504 0.000137445
   1.48956 -0.000113152
   1.52873 0.000153615
   1.56789 -0.000135106
   1.60706 0.000217754
   1.64622 0.000284557
   1.68539 -0.000947082
   1.72107 0.000822961
   1.75152 -2.7432e-05
   1.77865 -0.000211546
   1.80281 0.000235317
   1.82434 -0.000242341
   1.84353 3.72041e-05
   1.86062 -0.000119806
   1.87584 -0.000196896
   1.88941 -0.000285907
    1.9015 -0.000389365
   1.91226 -0.000396546
   1.92186 -0.000266369
    1.9304 0.000163992
   1.93802 0.000631048
    1.9448  0.0011638
   1.95084 0.00156622
   1.95623 0.00166937
   1.96103 0.00154839
    1.9653 0.00112236
   1.96911 0.000353503
    1.9725 -0.000567629
   1.97552 -0.00143756
   1.97822 -0.00208576
   1.98061 -0.00240939
   1.98275 -0.00239475
   1.98466 -0.00210041
   1.98635 -0.00164226
   1.98786 -0.00115266
   1.98921 -0.000724825
   1.99041 -0.00037384
   1.99148 -6.77586e-05
   1.99243 0.000103756
   1.99333 8.59664e-06
   1.99421 -0.000170602
    1.9951 -0.000225816
     1.996 -0.000194275
   1.99689 -8.81509e-05
   1.99777 0.000165586
   1.99867 0.000440917
   1.99956 0.000558066
         2 0.000558066
