         0 -5.04167e-20
  0.000445 3.03913e-20
  0.001335 -9.03292e-20
  0.002225 1.20058e-19
  0.003115 6.02578e-20
  0.004005 3.87765e-19
  0.004895 -3.21397e-19
  0.005785 -3.93119e-19
  0.006675 1.92771e-19
0.00756867 3.84926e-19
0.00852095 -2.32453e-20
0.00958982 9.1073e-21
 0.0107896 -5.01882e-19
 0.0121362 -2.91382e-19
 0.0136477 -3.54924e-19
 0.0153442 5.94117e-19
 0.0172484 4.38044e-19
 0.0193858 -5.22152e-21
 0.0217849 6.38448e-19
 0.0244777 6.18741e-19
 0.0275001 -2.12157e-20
 0.0308926 4.98108e-19
 0.0347005 -4.10297e-19
 0.0389746 -5.48337e-19
 0.0437719 -6.75018e-19
 0.0491566 -1.84401e-20
 0.0552005 -4.33195e-19
 0.0619844 7.84095e-20
 0.0695988 2.2914e-19
 0.0781455 4.1969e-19
 0.0877386 9.90787e-20
 0.0985062 1.97863e-19
  0.110592 2.27539e-19
  0.124158 8.86281e-21
  0.139384 1.96154e-19
  0.156474 1.6165e-19
  0.175657 3.74136e-20
  0.197189 1.80212e-19
  0.221357 1.63975e-20
  0.248483 -1.0444e-19
  0.278931 2.85102e-20
  0.314615 -1.03433e-19
   0.35378 5.73543e-22
  0.392945 1.20845e-20
   0.43211 2.22955e-20
  0.471275 -1.45847e-20
   0.51044 -1.80411e-21
  0.549604 2.78293e-20
  0.588769 2.73154e-20
  0.627934 -1.11586e-20
  0.667099 2.35706e-21
  0.706264 1.37108e-20
  0.745429 -1.71869e-20
  0.784593 -6.36698e-20
  0.823758 -1.9694e-20
  0.862923 -2.46295e-20
  0.902088 -1.20097e-20
  0.941253 -1.24466e-20
  0.980418 1.71415e-20
   1.01958 1.17636e-21
   1.05875 1.46028e-20
   1.09791 -1.64745e-20
   1.13708 -6.46184e-22
   1.17624 2.05784e-20
   1.21541 2.89645e-21
   1.25457 -2.95066e-20
   1.29374 -3.65983e-20
    1.3329 -1.96333e-20
   1.37207 3.72532e-20
   1.41123 2.73761e-20
    1.4504 -1.90887e-20
   1.48956 -4.58898e-20
   1.52873 -3.45644e-21
   1.56789 2.49334e-20
   1.60706 1.23447e-19
   1.64622 -2.72894e-20
   1.68539 -7.96932e-20
   1.72107 1.48671e-19
   1.75152 -1.42291e-20
   1.77865 6.8257e-20
   1.80281 -1.48939e-19
   1.82434 1.0739e-19
   1.84353 -1.55923e-19
   1.86062 1.72796e-19
   1.87584 -8.57821e-20
   1.88941 -4.26829e-20
    1.9015 2.88351e-19
   1.91226 -3.73271e-20
   1.92186 -9.5219e-20
    1.9304 7.4213e-19
   1.93802 -2.21411e-19
    1.9448 1.01759e-19
   1.95084 1.74565e-19
   1.95623 3.39919e-19
   1.96103 -1.29101e-18
    1.9653 1.14211e-18
   1.96911 1.28579e-18
    1.9725 -5.14692e-20
   1.97552 -1.30174e-19
   1.97822 -9.59562e-19
   1.98061 4.66502e-19
   1.98275 -1.58987e-18
   1.98466 -6.15584e-19
   1.98635 5.26003e-19
   1.98786 2.05322e-19
   1.98921 -4.22318e-19
   1.99041 -2.17847e-19
   1.99148 1.51537e-18
   1.99243 -9.5281e-19
   1.99333 -7.64722e-19
   1.99421 2.13734e-19
    1.9951  8.336e-19
     1.996 -1.72014e-18
   1.99689 1.00971e-18
   1.99777 1.32273e-19
   1.99867 9.63075e-20
   1.99956 -3.93268e-19
         2 -4.20363e-19
