         0 -2.4281e-22
  0.000445 -5.50976e-22
  0.001335 4.60545e-21
  0.002225 -1.12302e-20
  0.003115 -2.4429e-20
  0.004005 -3.89332e-20
  0.004895 -6.80754e-20
  0.005785 -3.04287e-20
  0.006675 -3.21271e-20
0.00756867 -8.73379e-20
0.00852095 -1.40896e-19
0.00958982 1.54746e-19
 0.0107896 -7.34341e-20
 0.0121362 7.28779e-20
 0.0136477 2.13857e-19
 0.0153442 7.83358e-20
 0.0172484 3.10082e-22
 0.0193858 -7.78023e-20
 0.0217849 6.85782e-20
 0.0244777 2.79981e-19
 0.0275001 8.04966e-21
 0.0308926 -1.09449e-19
 0.0347005 3.69366e-20
 0.0389746 9.45077e-20
 0.0437719 -2.15878e-19
 0.0491566 -4.04624e-20
 0.0552005 -9.31286e-20
 0.0619844 -1.64799e-20
 0.0695988 -7.02563e-22
 0.0781455 8.10116e-21
 0.0877386 2.15178e-19
 0.0985062 -2.40303e-20
  0.110592 1.22862e-20
  0.124158 9.21789e-21
  0.139384 -1.39801e-19
  0.156474 -1.80455e-20
  0.175657 7.14138e-20
  0.197189 7.80626e-22
  0.221357 -4.95838e-20
  0.248483 -1.86873e-19
  0.278931 4.87999e-21
  0.314615 4.32748e-20
   0.35378 4.91187e-20
  0.392945 -1.05685e-20
   0.43211 -1.39732e-20
  0.471275 -5.52672e-21
   0.51044 5.40171e-20
  0.549604 -3.03582e-20
  0.588769 -7.84312e-21
  0.627934 6.21812e-20
  0.667099 1.6211e-20
  0.706264 -1.10263e-21
  0.745429 6.39679e-22
  0.784593 4.0083e-21
  0.823758 -3.17942e-20
  0.862923 1.27575e-20
  0.902088 1.59029e-20
  0.941253 -1.15934e-20
  0.980418 -2.07275e-20
   1.01958 8.88636e-21
   1.05875 -1.02636e-20
   1.09791 1.34262e-20
   1.13708 2.46369e-20
   1.17624 1.60917e-20
   1.21541 -2.68913e-20
   1.25457 -3.54792e-21
   1.29374 2.33624e-20
    1.3329 8.53484e-21
   1.37207 6.46705e-20
   1.41123 2.9512e-20
    1.4504 -3.90638e-21
   1.48956 7.70651e-21
   1.52873 -5.00706e-20
   1.56789 -8.18052e-20
   1.60706 -1.71881e-20
   1.64622 3.28058e-20
   1.68539 -2.51855e-20
   1.72107 -1.32945e-19
   1.75152 -3.78983e-21
   1.77865 1.5786e-20
   1.80281 -6.08823e-20
   1.82434 2.64719e-20
   1.84353 -2.43071e-19
   1.86062 2.23664e-19
   1.87584 -4.54931e-21
   1.88941 5.31216e-20
    1.9015 2.9787e-19
   1.91226 7.59072e-20
   1.92186 2.13371e-19
    1.9304 -3.01148e-20
   1.93802 -9.4447e-20
    1.9448 -7.79037e-20
   1.95084 -1.00902e-19
   1.95623 1.1978e-19
   1.96103 1.79459e-19
    1.9653 -2.10059e-20
   1.96911 1.95005e-20
    1.9725 1.31238e-19
   1.97552 -5.59279e-19
   1.97822 -4.01302e-19
   1.98061 1.54438e-19
   1.98275 -3.76337e-19
   1.98466 3.76869e-20
   1.98635 -4.22026e-19
   1.98786  2.739e-19
   1.98921 6.51952e-20
   1.99041 -5.54603e-19
   1.99148 3.99778e-19
   1.99243 7.5558e-20
   1.99333 1.1872e-21
   1.99421 4.89203e-20
    1.9951 6.65771e-20
     1.996 -6.71343e-20
   1.99689 2.89512e-20
   1.99777 1.6841e-20
   1.99867 1.3109e-20
   1.99956 3.51007e-21
         2 4.0204e-21
