         0 9.45355e-20
  0.000445 9.90049e-20
  0.001335 1.71875e-20
  0.002225 6.79917e-20
  0.003115 -2.05828e-21
  0.004005 2.88139e-21
  0.004895 4.77686e-21
  0.005785 5.3919e-20
  0.006675 4.95004e-20
0.00756867 8.26444e-20
0.00852095 2.85212e-20
0.00958982 -7.18503e-20
 0.0107896 3.68561e-22
 0.0121362 2.9458e-20
 0.0136477 2.91635e-20
 0.0153442 5.05169e-20
 0.0172484 1.16766e-20
 0.0193858 1.06378e-20
 0.0217849 4.65641e-20
 0.0244777 1.88218e-20
 0.0275001 9.3526e-21
 0.0308926 4.91209e-20
 0.0347005 -1.04691e-20
 0.0389746 -1.73429e-20
 0.0437719 8.60423e-21
 0.0491566 -1.45847e-20
 0.0552005 2.56739e-21
 0.0619844 -1.07759e-20
 0.0695988 -2.51361e-20
 0.0781455 4.5311e-20
 0.0877386 -2.00165e-20
 0.0985062 -6.14959e-21
  0.110592 6.96383e-21
  0.124158 1.99461e-20
  0.139384 9.06122e-21
  0.156474 -5.08626e-21
  0.175657 1.31657e-20
  0.197189 5.8303e-21
  0.221357 8.06592e-21
  0.248483 -6.41611e-21
  0.278931 -2.1581e-21
  0.314615 5.89521e-21
   0.35378 -1.8838e-21
  0.392945 -4.70248e-21
   0.43211 -4.41867e-21
  0.471275 -2.22668e-21
   0.51044 4.25463e-21
  0.549604 -7.14394e-21
  0.588769  5.039e-21
  0.627934 2.35102e-21
  0.667099 -9.54813e-21
  0.706264 -3.44048e-21
  0.745429 7.04152e-21
  0.784593 9.90148e-22
  0.823758 -7.47727e-21
  0.862923 -1.20634e-20
  0.902088 -6.53466e-21
  0.941253 1.28038e-20
  0.980418 6.04295e-21
   1.01958 1.77234e-20
   1.05875 5.26213e-21
   1.09791 -1.85447e-20
   1.13708 -5.86032e-21
   1.17624 -7.5266e-21
   1.21541 1.45648e-20
   1.25457 -8.84641e-21
   1.29374 -1.22083e-20
    1.3329 1.46407e-20
   1.37207 -4.26457e-21
   1.41123 2.41565e-21
    1.4504 5.34325e-21
   1.48956 -1.04005e-20
   1.52873 6.41468e-21
   1.56789 -6.57569e-22
   1.60706 -6.17074e-21
   1.64622 -4.74759e-21
   1.68539 2.68855e-21
   1.72107 -2.4961e-21
   1.75152 -6.69657e-21
   1.77865 -8.05876e-21
   1.80281 1.65089e-20
   1.82434 -1.2841e-21
   1.84353 2.56141e-20
   1.86062 -2.06223e-20
   1.87584 1.93538e-20
   1.88941 7.65853e-21
    1.9015 4.5466e-21
   1.91226 5.19197e-22
   1.92186 2.82242e-20
    1.9304 -4.13666e-20
   1.93802 1.65674e-20
    1.9448 -2.1123e-20
   1.95084 -1.94968e-20
   1.95623 1.45267e-20
   1.96103 -7.91909e-20
    1.9653 2.82576e-20
   1.96911 -7.78078e-20
    1.9725 4.25194e-20
   1.97552 -6.95927e-20
   1.97822 -1.41401e-19
   1.98061 7.64363e-20
   1.98275 -1.05982e-19
   1.98466 -1.57643e-21
   1.98635 -8.24671e-20
   1.98786 -3.24019e-20
   1.98921 -3.16495e-20
   1.99041 2.21424e-19
   1.99148 1.87572e-20
   1.99243 -2.40135e-20
   1.99333 1.16104e-19
   1.99421 -8.58412e-20
    1.9951 -5.35325e-20
     1.996 1.0739e-21
   1.99689 -3.32449e-20
   1.99777 -1.50576e-19
   1.99867 1.16461e-19
   1.99956 1.96962e-19
         2 2.05553e-19
