         0 5.64389e-19
  0.000445 6.81287e-19
  0.001335 1.02448e-18
  0.002225 5.8854e-19
  0.003115 1.71447e-19
  0.004005 3.97698e-19
  0.004895 1.58445e-19
  0.005785 6.99809e-19
  0.006675 2.28181e-19
0.00756867 -5.20547e-20
0.00852095 5.97061e-19
0.00958982 2.11896e-19
 0.0107896 1.54664e-19
 0.0121362 3.77779e-19
 0.0136477 6.18581e-19
 0.0153442 2.98329e-19
 0.0172484 6.38088e-19
 0.0193858 3.6846e-19
 0.0217849 2.40606e-19
 0.0244777 7.47633e-19
 0.0275001 2.84476e-19
 0.0308926 3.45478e-19
 0.0347005 7.67109e-19
 0.0389746 3.95469e-19
 0.0437719 4.44562e-19
 0.0491566 4.44961e-19
 0.0552005 6.23399e-19
 0.0619844 7.67537e-19
 0.0695988 6.16425e-19
 0.0781455 4.46934e-19
 0.0877386 9.43191e-20
 0.0985062 1.92919e-19
  0.110592 1.27554e-19
  0.124158 8.1107e-19
  0.139384 5.71301e-19
  0.156474 2.01213e-19
  0.175657 5.69401e-19
  0.197189 6.44547e-19
  0.221357 1.77269e-18
  0.248483 3.71962e-19
  0.278931 5.06567e-19
  0.314615 2.35588e-19
   0.35378 3.85757e-19
  0.392945 -1.96024e-20
   0.43211 -3.74397e-19
  0.471275 2.21268e-19
   0.51044 5.75653e-19
  0.549604 -3.43618e-19
  0.588769 4.32147e-19
  0.627934 -1.32131e-19
  0.667099  2.799e-21
  0.706264 1.42199e-19
  0.745429 -1.79432e-19
  0.784593 -2.27553e-19
  0.823758 -2.48339e-20
  0.862923 -2.05247e-19
  0.902088 -7.39973e-20
  0.941253 -2.83964e-19
  0.980418 -1.6617e-19
   1.01958 -1.17029e-20
   1.05875 7.77606e-20
   1.09791 -3.50733e-21
   1.13708 -1.0051e-19
   1.17624 9.82974e-20
   1.21541 1.69928e-19
   1.25457 3.88417e-19
   1.29374 -1.31963e-19
    1.3329 -1.45926e-19
   1.37207 -1.688e-20
   1.41123 7.31678e-19
    1.4504 -1.74808e-19
   1.48956 -5.97612e-21
   1.52873 1.60011e-19
   1.56789 1.4596e-19
   1.60706 2.92719e-19
   1.64622 1.06338e-19
   1.68539 -7.55646e-20
   1.72107 1.85441e-19
   1.75152 1.94304e-19
   1.77865 2.88792e-19
   1.80281 2.67579e-19
   1.82434 4.94535e-19
   1.84353 1.20323e-19
   1.86062 -1.17241e-19
   1.87584 2.74481e-19
   1.88941 3.5819e-19
    1.9015 -8.27897e-20
   1.91226 1.4782e-19
   1.92186 2.21208e-19
    1.9304 -1.17136e-18
   1.93802 2.69715e-19
    1.9448 2.04897e-19
   1.95084 1.79648e-19
   1.95623 3.98041e-19
   1.96103 -1.52539e-18
    1.9653 -3.59001e-19
   1.96911 -1.68823e-19
    1.9725 -1.43734e-18
   1.97552 -3.96753e-19
   1.97822 -1.63426e-18
   1.98061 2.28238e-19
   1.98275 -2.22702e-18
   1.98466 8.03363e-19
   1.98635 -1.58459e-18
   1.98786 4.13384e-18
   1.98921 -2.25723e-18
   1.99041 -3.17206e-18
   1.99148 4.28988e-19
   1.99243 -5.58134e-19
   1.99333 3.61847e-18
   1.99421 -8.78207e-18
    1.9951 5.33032e-18
     1.996 -7.28148e-18
   1.99689 7.99527e-18
   1.99777 -4.31955e-18
   1.99867 -5.12278e-18
   1.99956 3.85998e-19
         2 1.22138e-18
