         0 -0.0400412
  0.000445 -0.0400412
  0.001335  -0.225645
  0.002225  -0.398388
  0.003115  -0.176467
  0.004005 -0.0636306
  0.004895 -0.00705812
  0.005785   0.132788
  0.006675    0.27264
0.00756867  -0.057519
0.00852095   -0.29133
0.00958982  -0.284196
 0.0107896  -0.302166
 0.0121362  -0.334375
 0.0136477   -0.31843
 0.0153442  -0.230999
 0.0172484 -0.0871098
 0.0193858  0.0732489
 0.0217849   0.206924
 0.0244777   0.277867
 0.0275001   0.278122
 0.0308926   0.237343
 0.0347005   0.178025
 0.0389746  0.0910146
 0.0437719 -0.0375876
 0.0491566 -0.0573322
 0.0552005 -0.0844534
 0.0619844 -0.0528456
 0.0695988 -0.0691769
 0.0781455 -0.00592978
 0.0877386  -0.041942
 0.0985062   0.057039
  0.110592 -0.0684054
  0.124158  0.0995562
  0.139384     -0.107
  0.156474   0.138902
  0.175657  -0.157078
  0.197189   0.181154
  0.221357  -0.197217
  0.248483   0.182816
  0.278931 -0.0988332
  0.314615 -0.0201897
   0.35378  0.0936861
  0.392945  -0.100965
   0.43211  0.0800374
  0.471275  -0.064966
   0.51044  0.0565904
  0.549604 -0.0503252
  0.588769  0.0419285
  0.627934 -0.0310359
  0.667099  0.0205887
  0.706264 -0.0133425
  0.745429  0.0094915
  0.784593 -0.0103655
  0.823758  0.0128812
  0.862923 -0.0114887
  0.902088 0.00799578
  0.941253 -0.0100379
  0.980418  0.0179371
   1.01958 -0.0271749
   1.05875  0.0336604
   1.09791  -0.037471
   1.13708  0.0395461
   1.17624 -0.0389077
   1.21541  0.0380956
   1.25457 -0.0389455
   1.29374  0.0413051
    1.3329 -0.0439283
   1.37207  0.0492449
   1.41123 -0.0585603
    1.4504  0.0704466
   1.48956 -0.0832436
   1.52873  0.0968663
   1.56789   -0.11161
   1.60706   0.129629
   1.64622  -0.126218
   1.68539  0.0633231
   1.72107  0.0329165
   1.75152 -0.0962256
   1.77865  0.0936011
   1.80281 -0.0658165
   1.82434  0.0267899
   1.84353 0.000859821
   1.86062 -0.0204639
   1.87584  0.0122234
   1.88941 -0.0276466
    1.9015  0.0128627
   1.91226  -0.015853
   1.92186  0.0465954
    1.9304  0.0545744
   1.93802  0.0689317
    1.9448  0.0893086
   1.95084  0.0410779
   1.95623 -0.00544824
   1.96103 -0.0474122
    1.9653  -0.158343
   1.96911  -0.250827
    1.9725  -0.294755
   1.97552  -0.280052
   1.97822  -0.196571
   1.98061 -0.0656827
   1.98275  0.0882594
   1.98466   0.229009
   1.98635   0.316128
   1.98786   0.332682
   1.98921   0.300919
   1.99041   0.283176
   1.99148   0.289949
   1.99243  0.0568317
   1.99333  -0.271141
   1.99421  -0.131553
    1.9951  0.0074775
     1.996  0.0634001
   1.99689   0.175082
   1.99777   0.395114
   1.99867   0.223608
   1.99956  0.0396489
         2  0.0396489
