         0 -0.0185382
  0.000445 -0.0185382
  0.001335  -0.102595
  0.002225  -0.240264
  0.003115  -0.404056
  0.004005  -0.562999
  0.004895  -0.691089
  0.005785  -0.773518
  0.006675  -0.808047
0.00756867  -0.802766
0.00852095  -0.770133
0.00958982  -0.718333
 0.0107896  -0.668574
 0.0121362  -0.645183
 0.0136477  -0.657378
 0.0153442  -0.696809
 0.0172484  -0.759699
 0.0193858  -0.849703
 0.0217849  -0.932021
 0.0244777  -0.954158
 0.0275001  -0.915539
 0.0308926  -0.850126
 0.0347005  -0.719346
 0.0389746   -0.47945
 0.0437719  -0.254723
 0.0491566  -0.118008
 0.0552005 -0.0225308
 0.0619844 -0.00804429
 0.0695988 -0.0243492
 0.0781455   0.154151
 0.0877386   0.201994
 0.0985062   0.015821
  0.110592   0.183655
  0.124158   0.115513
  0.139384  0.0705652
  0.156474  -0.092393
  0.175657  -0.175455
  0.197189  0.0277352
  0.221357   0.110787
  0.248483  -0.081433
  0.278931  0.0281579
  0.314615 -0.0260895
   0.35378  0.0168858
  0.392945 -0.0261954
   0.43211  0.0443717
  0.471275  -0.109204
   0.51044  0.0893367
  0.549604  -0.103427
  0.588769  0.0726684
  0.627934  0.0497398
  0.667099 -0.0312456
  0.706264 -0.0316922
  0.745429  -0.012912
  0.784593   -0.10336
  0.823758 -0.0212234
  0.862923  0.0300574
  0.902088   0.175874
  0.941253  -0.036561
  0.980418 -0.00977694
   1.01958 -0.0269766
   1.05875  0.0132724
   1.09791  -0.032501
   1.13708 -0.0333111
   1.17624 -0.00444472
   1.21541 0.00853839
   1.25457  0.0123031
   1.29374 -0.0825108
    1.3329  0.0337185
   1.37207  0.0319325
   1.41123    0.10939
    1.4504   0.019008
   1.48956 -0.0137257
   1.52873 -0.0217418
   1.56789  0.0417708
   1.60706  0.0446672
   1.64622 -0.0717543
   1.68539   0.107185
   1.72107 -0.0479527
   1.75152  -0.115546
   1.77865  0.0255253
   1.80281   0.136911
   1.82434  -0.227256
   1.84353 0.00593434
   1.86062 -0.00762394
   1.87584 -0.0541652
   1.88941 -0.0207808
    1.9015  0.0374201
   1.91226 -0.0819944
   1.92186 -0.0331205
    1.9304  0.0706174
   1.93802   0.132517
    1.9448 -0.0401907
   1.95084  -0.147901
   1.95623  -0.125849
   1.96103  -0.033394
    1.9653   0.330397
   1.96911   0.680625
    1.9725   0.731268
   1.97552    0.66208
   1.97822   0.697435
   1.98061    0.85857
   1.98275    1.09913
   1.98466    1.32482
   1.98635    1.44043
   1.98786    1.41402
   1.98921    1.27592
   1.99041    1.08357
   1.99148   0.887832
   1.99243   0.719208
   1.99333   0.582924
   1.99421   0.468034
    1.9951   0.369622
     1.996   0.281628
   1.99689   0.199405
   1.99777   0.123159
   1.99867  0.0583284
   1.99956  0.0133161
         2  0.0133161
