         0   -62.6601
  0.000445   -62.6601
  0.001335   -175.696
  0.002225   -399.311
  0.003115   -718.952
  0.004005   -1102.35
  0.004895   -1504.93
  0.005785   -1879.81
  0.006675   -2188.17
0.00756867   -2407.11
0.00852095   -2534.69
0.00958982   -2557.31
 0.0107896   -2463.01
 0.0121362   -2260.48
 0.0136477   -1977.95
 0.0153442   -1655.23
 0.0172484   -1332.12
 0.0193858    -1038.5
 0.0217849   -790.214
 0.0244777   -590.715
 0.0275001   -435.904
 0.0308926   -318.655
 0.0347005   -231.364
 0.0389746   -166.854
 0.0437719   -119.272
 0.0491566   -84.5571
 0.0552005    -59.457
 0.0619844   -41.2046
 0.0695988    -28.282
 0.0781455   -19.3881
 0.0877386    -13.214
 0.0985062    -9.1787
  0.110592   -6.52265
  0.124158   -4.79725
  0.139384   -3.42482
  0.156474   -2.94319
  0.175657   -2.20325
  0.197189    -2.0449
  0.221357   -1.25758
  0.248483   -2.05322
  0.278931  -0.675434
  0.314615  -0.965786
   0.35378   -1.39638
  0.392945  -0.737136
   0.43211  -0.870176
  0.471275  -0.736898
   0.51044  -0.778574
  0.549604  -0.628794
  0.588769  -0.697187
  0.627934  -0.710297
  0.667099  -0.571678
  0.706264  -0.594566
  0.745429  -0.653303
  0.784593  -0.655978
  0.823758  -0.692496
  0.862923  -0.807503
  0.902088  -0.792264
  0.941253  -0.800746
  0.980418  -0.803359
   1.01958  -0.832158
   1.05875   -0.79208
   1.09791  -0.785269
   1.13708   -0.77906
   1.17624  -0.790884
   1.21541  -0.543999
   1.25457  -0.666519
   1.29374  -0.634555
    1.3329  -0.732541
   1.37207  -0.457733
   1.41123  -0.778222
    1.4504  -0.465457
   1.48956  -0.658095
   1.52873  -0.716495
   1.56789   -1.02653
   1.60706  -0.796532
   1.64622   -1.57169
   1.68539  -0.821665
   1.72107   -1.01844
   1.75152   -1.77488
   1.77865   -1.38238
   1.80281   -1.82664
   1.82434   -2.19037
   1.84353   -2.82641
   1.86062   -3.63276
   1.87584   -4.91677
   1.88941   -6.56611
    1.9015   -9.31599
   1.91226   -13.3764
   1.92186   -19.2565
    1.9304   -28.0741
   1.93802   -41.1866
    1.9448   -59.6815
   1.95084   -85.0394
   1.95623   -119.411
   1.96103   -166.638
    1.9653   -231.266
   1.96911   -318.599
    1.9725   -435.663
   1.97552   -590.271
   1.97822   -789.805
   1.98061   -1038.32
   1.98275   -1332.02
   1.98466   -1654.82
   1.98635    -1976.7
   1.98786    -2257.9
   1.98921   -2458.69
   1.99041   -2551.13
   1.99148   -2526.82
   1.99243   -2397.98
   1.99333   -2178.35
   1.99421   -1870.03
    1.9951   -1496.04
     1.996   -1095.14
   1.99689   -713.898
   1.99777   -396.441
   1.99867   -174.563
   1.99956   -62.4875
         2   -62.4875
