         0          0
  0.000445 -1.62713e-05
  0.001335 -4.84514e-05
  0.002225 -7.96634e-05
  0.003115 -0.000109721
  0.004005 -0.000139016
  0.004895 -0.000168443
  0.005785 -0.000199094
  0.006675 -0.000231962
0.00756867 -0.000267908
0.00852095 -0.000309818
0.00958982 -0.00036157
 0.0107896 -0.000425647
 0.0121362 -0.000505365
 0.0136477 -0.000605313
 0.0153442 -0.000730195
 0.0172484 -0.000880251
 0.0193858 -0.00104941
 0.0217849 -0.00123265
 0.0244777 -0.00144092
 0.0275001 -0.00170217
 0.0308926 -0.0020391
 0.0347005 -0.00241721
 0.0389746 -0.00270721
 0.0437719 -0.00279089
 0.0491566 -0.00274335
 0.0552005 -0.00274502
 0.0619844 -0.00281008
 0.0695988 -0.00293245
 0.0781455 -0.0031152
 0.0877386 -0.00298297
 0.0985062 -0.00254402
  0.110592 -0.0024855
  0.124158 -0.00274721
  0.139384 -0.0028684
  0.156474 -0.00247389
  0.175657 -0.00264446
  0.197189 -0.00236957
  0.221357 -0.00113629
  0.248483 -0.00196072
  0.278931 -0.00200522
  0.314615 -0.00255358
   0.35378 -0.00155263
  0.392945 -0.000328726
   0.43211 -0.00105661
  0.471275 -0.000495125
   0.51044 -0.00122157
  0.549604 -0.00149534
  0.588769 -0.00166881
  0.627934 -0.000584612
  0.667099 0.000998357
  0.706264 0.00152112
  0.745429 0.00108533
  0.784593 0.000699134
  0.823758 0.00137178
  0.862923 0.00204696
  0.902088 0.00256132
  0.941253 0.00276056
  0.980418 0.00232361
   1.01958 0.00165786
   1.05875 0.000735467
   1.09791 0.000245513
   1.13708 5.03699e-05
   1.17624 0.000231992
   1.21541 0.000334241
   1.25457 0.000695406
   1.29374 -0.000490257
    1.3329 -0.00212862
   1.37207 -0.00196763
   1.41123 -0.00197193
    1.4504 -0.00163312
   1.48956 -0.00105535
   1.52873 -0.000822858
   1.56789 -0.000317774
   1.60706 -0.00120152
   1.64622 -0.000678815
   1.68539 0.00182239
   1.72107  0.0017389
   1.75152 0.00298689
   1.77865 0.00428931
   1.80281 0.00371169
   1.82434  0.0031459
   1.84353 0.00347985
   1.86062 0.00368785
   1.87584 0.00335545
   1.88941 0.00318706
    1.9015 0.00317485
   1.91226 0.00318573
   1.92186 0.00311642
    1.9304 0.00325387
   1.93802 0.00319078
    1.9448 0.00299564
   1.95084 0.00283495
   1.95623  0.0026783
   1.96103 0.00251366
    1.9653 0.00235452
   1.96911 0.00219762
    1.9725 0.00205729
   1.97552 0.00195152
   1.97822 0.00189761
   1.98061 0.00188748
   1.98275 0.00188683
   1.98466 0.00186336
   1.98635 0.00180559
   1.98786  0.0017187
   1.98921 0.00161217
   1.99041 0.00149387
   1.99148 0.00136993
   1.99243  0.0012453
   1.99333 0.00111741
   1.99421 0.000980778
    1.9951 0.000836932
     1.996 0.000688153
   1.99689 0.000536498
   1.99777 0.000383496
   1.99867 0.000230077
   1.99956 7.66698e-05
         2          0
