         0          0
  0.000445 2.60524e-07
  0.001335 7.49867e-07
  0.002225 1.05657e-06
  0.003115 1.04145e-06
  0.004005 8.85949e-07
  0.004895 6.82965e-07
  0.005785 4.77634e-07
  0.006675 3.81519e-07
0.00756867 5.05524e-07
0.00852095 5.9341e-07
0.00958982 3.6911e-07
 0.0107896 -2.90114e-07
 0.0121362 -1.58474e-06
 0.0136477 -3.75487e-06
 0.0153442 -7.02321e-06
 0.0172484 -1.15565e-05
 0.0193858 -1.69743e-05
 0.0217849 -2.20816e-05
 0.0244777 -2.59076e-05
 0.0275001 -2.82763e-05
 0.0308926 -3.23325e-05
 0.0347005 -3.71249e-05
 0.0389746 -3.0209e-05
 0.0437719 -1.3425e-05
 0.0491566 3.34905e-06
 0.0552005 7.76031e-07
 0.0619844 9.75792e-06
 0.0695988 1.50504e-05
 0.0781455 2.46722e-05
 0.0877386 3.27947e-05
 0.0985062 -2.36337e-05
  0.110592 4.30224e-06
  0.124158 -7.05572e-06
  0.139384 2.23715e-05
  0.156474 -0.00010013
  0.175657 0.000127571
  0.197189 -8.23739e-05
  0.221357 1.37606e-05
  0.248483 -4.39023e-05
  0.278931 3.4585e-05
  0.314615 8.66387e-06
   0.35378 -0.000123521
  0.392945 0.000192155
   0.43211 -0.000265165
  0.471275 0.000309954
   0.51044 -0.00033215
  0.549604 0.000292541
  0.588769 -0.000229078
  0.627934 0.000169767
  0.667099 -0.000157528
  0.706264 0.000139029
  0.745429 -8.84768e-05
  0.784593 5.2788e-05
  0.823758 -5.29447e-05
  0.862923 6.76423e-05
  0.902088 -4.90564e-05
  0.941253 1.10354e-05
  0.980418 1.11184e-05
   1.01958 -1.8583e-06
   1.05875 -1.71118e-05
   1.09791 1.16825e-06
   1.13708 7.49812e-06
   1.17624 -8.42672e-08
   1.21541 -2.35568e-05
   1.25457 4.53189e-05
   1.29374 -1.5407e-05
    1.3329 -1.57869e-05
   1.37207 2.25665e-05
   1.41123 -3.97653e-06
    1.4504 2.10612e-05
   1.48956 -8.79923e-05
   1.52873 0.000184843
   1.56789 -0.000197909
   1.60706 0.000209324
   1.64622 -0.000184632
   1.68539 0.000167387
   1.72107 -8.11046e-05
   1.75152 5.04535e-05
   1.77865 -4.68518e-05
   1.80281 6.66959e-05
   1.82434 -2.66664e-05
   1.84353 1.84746e-05
   1.86062 3.93006e-05
   1.87584 -4.6746e-05
   1.88941 2.45299e-05
    1.9015 -3.38137e-05
   1.91226 -2.47445e-06
   1.92186 -1.85511e-05
    1.9304 2.66322e-07
   1.93802 -1.2698e-05
    1.9448 -6.2109e-06
   1.95084 -3.68829e-07
   1.95623 8.78522e-06
   1.96103 2.14719e-05
    1.9653 3.17897e-05
   1.96911 3.40039e-05
    1.9725 3.30803e-05
   1.97552 2.77616e-05
   1.97822 2.1112e-05
   1.98061 1.53154e-05
   1.98275 1.04761e-05
   1.98466 6.46181e-06
   1.98635 3.43321e-06
   1.98786 1.44524e-06
   1.98921 2.82312e-07
   1.99041 -3.22078e-07
   1.99148 -5.38078e-07
   1.99243 -4.63847e-07
   1.99333 -3.49033e-07
   1.99421 -4.52988e-07
    1.9951 -6.67017e-07
     1.996 -8.77768e-07
   1.99689 -1.03652e-06
   1.99777 -1.05056e-06
   1.99867 -7.44412e-07
   1.99956 -2.58248e-07
         2          0
