         0          0
  0.000445 2.60789e-07
  0.001335 7.5017e-07
  0.002225 1.05656e-06
  0.003115 1.04117e-06
  0.004005 8.85549e-07
  0.004895 6.82373e-07
  0.005785 4.77093e-07
  0.006675 3.80739e-07
0.00756867 5.04641e-07
0.00852095 5.91372e-07
0.00958982 3.67086e-07
 0.0107896 -2.93195e-07
 0.0121362 -1.58764e-06
 0.0136477 -3.73598e-06
 0.0153442 -6.98704e-06
 0.0172484 -1.15138e-05
 0.0193858 -1.69645e-05
 0.0217849 -2.21193e-05
 0.0244777 -2.59857e-05
 0.0275001 -2.83628e-05
 0.0308926 -3.23197e-05
 0.0347005 -3.69514e-05
 0.0389746 -2.99785e-05
 0.0437719 -1.37821e-05
 0.0491566 3.46946e-06
 0.0552005 1.30166e-06
 0.0619844 9.17469e-06
 0.0695988 1.4751e-05
 0.0781455 2.50099e-05
 0.0877386 3.33154e-05
 0.0985062 -2.36735e-05
  0.110592 5.19511e-06
  0.124158 -7.91822e-06
  0.139384 2.25223e-05
  0.156474 -9.94933e-05
  0.175657 0.000126334
  0.197189 -8.22544e-05
  0.221357 1.42781e-05
  0.248483 -4.37647e-05
  0.278931 3.4595e-05
  0.314615 8.78938e-06
   0.35378 -0.000123584
  0.392945 0.000192709
   0.43211 -0.000265921
  0.471275 0.000310784
   0.51044 -0.000332873
  0.549604 0.000293483
  0.588769 -0.00022995
  0.627934 0.000170528
  0.667099 -0.000157845
  0.706264 0.000139165
  0.745429 -8.83722e-05
  0.784593 5.26259e-05
  0.823758 -5.28147e-05
  0.862923 6.75232e-05
  0.902088 -4.89442e-05
  0.941253 1.12044e-05
  0.980418 1.0937e-05
   1.01958 -1.57168e-06
   1.05875 -1.73265e-05
   1.09791 9.26158e-07
   1.13708 7.59545e-06
   1.17624 5.53194e-08
   1.21541 -2.4034e-05
   1.25457 4.56936e-05
   1.29374 -1.58169e-05
    1.3329 -1.58752e-05
   1.37207 2.28513e-05
   1.41123 -4.36893e-06
    1.4504 2.11945e-05
   1.48956 -8.82698e-05
   1.52873 0.000185006
   1.56789 -0.000198142
   1.60706 0.000209985
   1.64622 -0.00018444
   1.68539 0.000167609
   1.72107 -8.04282e-05
   1.75152 5.03738e-05
   1.77865 -4.68259e-05
   1.80281 6.76318e-05
   1.82434 -2.67763e-05
   1.84353 1.86127e-05
   1.86062  3.895e-05
   1.87584 -4.66467e-05
   1.88941 2.47509e-05
    1.9015 -3.37161e-05
   1.91226 -2.94705e-06
   1.92186 -1.80675e-05
    1.9304 1.69554e-07
   1.93802 -1.31883e-05
    1.9448 -6.19329e-06
   1.95084 4.88838e-07
   1.95623 9.05931e-06
   1.96103 2.12752e-05
    1.9653 3.15698e-05
   1.96911 3.38517e-05
    1.9725 3.31165e-05
   1.97552 2.78462e-05
   1.97822 2.11194e-05
   1.98061 1.52612e-05
   1.98275 1.04701e-05
   1.98466 6.47889e-06
   1.98635 3.43208e-06
   1.98786 1.44514e-06
   1.98921 2.8581e-07
   1.99041 -3.2462e-07
   1.99148 -5.3957e-07
   1.99243 -4.64349e-07
   1.99333 -3.49239e-07
   1.99421 -4.52906e-07
    1.9951 -6.66984e-07
     1.996 -8.78097e-07
   1.99689 -1.03678e-06
   1.99777 -1.05048e-06
   1.99867 -7.44103e-07
   1.99956 -2.581e-07
         2          0
