         0          0
  0.000445 -1.6189e-05
  0.001335 -4.82229e-05
  0.002225 -7.93424e-05
  0.003115 -0.000109398
  0.004005 -0.000138798
  0.004895 -0.000168443
  0.005785 -0.000199411
  0.006675 -0.000232679
0.00756867 -0.000269078
0.00852095 -0.000311488
0.00958982 -0.000363763
 0.0107896 -0.000428297
 0.0121362 -0.000508288
 0.0136477 -0.000608212
 0.0153442 -0.000732651
 0.0172484 -0.000881895
 0.0193858 -0.00105038
 0.0217849  -0.001234
 0.0244777 -0.00144376
 0.0275001 -0.00170601
 0.0308926 -0.00204204
 0.0347005 -0.00241719
 0.0389746 -0.00270475
 0.0437719 -0.00279005
 0.0491566 -0.00274406
 0.0552005 -0.00274383
 0.0619844 -0.00281187
 0.0695988 -0.00293795
 0.0781455 -0.00312082
 0.0877386 -0.00298905
 0.0985062 -0.00255243
  0.110592 -0.00249376
  0.124158 -0.00274763
  0.139384 -0.00286203
  0.156474 -0.00246799
  0.175657 -0.0026426
  0.197189 -0.00237294
  0.221357 -0.00113897
  0.248483 -0.00195951
  0.278931 -0.00200308
  0.314615 -0.00255123
   0.35378 -0.00154944
  0.392945 -0.000324451
   0.43211 -0.00105617
  0.471275 -0.000496681
   0.51044 -0.0012211
  0.549604 -0.0014951
  0.588769 -0.00166908
  0.627934 -0.000583626
  0.667099 0.000997808
  0.706264 0.00151993
  0.745429 0.00108281
  0.784593 0.000699309
  0.823758 0.00137272
  0.862923 0.00204712
  0.902088 0.00256249
  0.941253 0.00275948
  0.980418   0.002322
   1.01958 0.00165813
   1.05875 0.000735978
   1.09791 0.00024381
   1.13708 4.86138e-05
   1.17624 0.00023132
   1.21541 0.000334185
   1.25457 0.000696254
   1.29374 -0.000490097
    1.3329 -0.00212865
   1.37207 -0.00196509
   1.41123 -0.00197204
    1.4504 -0.00163539
   1.48956 -0.00105372
   1.52873 -0.000819351
   1.56789 -0.000317062
   1.60706 -0.00120341
   1.64622 -0.00068013
   1.68539 0.00182325
   1.72107 0.00174068
   1.75152 0.00298502
   1.77865 0.00428231
   1.80281 0.00370439
   1.82434 0.00315023
   1.84353 0.00348632
   1.86062 0.00369002
   1.87584 0.00335695
   1.88941 0.00318613
    1.9015 0.00317327
   1.91226 0.00318794
   1.92186 0.00312285
    1.9304 0.00325759
   1.93802 0.00318977
    1.9448 0.00299473
   1.95084  0.0028349
   1.95623 0.00267801
   1.96103 0.00251173
    1.9653 0.00235056
   1.96911 0.00219355
    1.9725 0.00205416
   1.97552 0.00194831
   1.97822  0.0018938
   1.98061 0.00188388
   1.98275 0.00188447
   1.98466 0.00186268
   1.98635 0.00180613
   1.98786 0.00171968
   1.98921 0.00161311
   1.99041 0.00149459
   1.99148 0.00137044
   1.99243 0.00124566
   1.99333 0.00111771
   1.99421 0.000981074
    1.9951 0.000837247
     1.996 0.000688466
   1.99689 0.000536773
   1.99777 0.000383705
   1.99867 0.000230206
   1.99956 7.67134e-05
         2          0
