         0          0
  0.000445 -1.13251e-10
  0.001335 -2.36749e-09
  0.002225 -9.75626e-09
  0.003115 -2.43678e-08
  0.004005 -4.66426e-08
  0.004895 -7.56357e-08
  0.005785 -1.09459e-07
  0.006675 -1.45826e-07
0.00756867 -1.82763e-07
0.00852095 -2.20988e-07
0.00958982 -2.61034e-07
 0.0107896 -3.0192e-07
 0.0121362 -3.44165e-07
 0.0136477 -3.90229e-07
 0.0153442 -4.43103e-07
 0.0172484 -5.04975e-07
 0.0193858 -5.79624e-07
 0.0217849 -6.74019e-07
 0.0244777 -7.8945e-07
 0.0275001 -9.17794e-07
 0.0308926 -1.04512e-06
 0.0347005 -1.16889e-06
 0.0389746 -1.28828e-06
 0.0437719 -1.38441e-06
 0.0491566 -1.44899e-06
 0.0552005 -1.48742e-06
 0.0619844 -1.41859e-06
 0.0695988 -1.35314e-06
 0.0781455 -1.39807e-06
 0.0877386 -1.23419e-06
 0.0985062 -1.02475e-06
  0.110592 -1.03833e-06
  0.124158 -4.61607e-07
  0.139384 -4.29295e-07
  0.156474 2.03808e-07
  0.175657 4.09471e-07
  0.197189 7.21406e-07
  0.221357 1.02684e-06
  0.248483 2.07959e-06
  0.278931 8.63543e-07
  0.314615 2.96543e-06
   0.35378 1.70475e-06
  0.392945 3.12841e-06
   0.43211 2.39256e-06
  0.471275 4.96743e-06
   0.51044 3.31706e-06
  0.549604 4.34477e-06
  0.588769 4.56633e-06
  0.627934 5.42453e-06
  0.667099 5.44345e-06
  0.706264 5.31703e-06
  0.745429 5.45904e-06
  0.784593 5.33516e-06
  0.823758 4.91479e-06
  0.862923 4.93905e-06
  0.902088 5.15904e-06
  0.941253 5.03923e-06
  0.980418 4.6733e-06
   1.01958 4.55877e-06
   1.05875 4.25211e-06
   1.09791 3.90299e-06
   1.13708 3.47855e-06
   1.17624 3.04603e-06
   1.21541 2.8324e-06
   1.25457 2.17062e-06
   1.29374 3.33104e-06
    1.3329 1.98166e-06
   1.37207 3.39716e-06
   1.41123 2.12237e-06
    1.4504 3.40111e-06
   1.48956 2.84062e-06
   1.52873 3.34106e-06
   1.56789 2.51111e-06
   1.60706 2.49726e-06
   1.64622 2.01344e-06
   1.68539 2.10276e-06
   1.72107 1.57716e-06
   1.75152 8.51846e-07
   1.77865 6.48455e-07
   1.80281 2.24984e-07
   1.82434 2.42376e-07
   1.84353 -2.55791e-07
   1.86062 -3.37856e-07
   1.87584 -6.22569e-07
   1.88941 -6.86882e-07
    1.9015 -8.79884e-07
   1.91226 -7.78701e-07
   1.92186 -8.93023e-07
    1.9304 -8.59314e-07
   1.93802 -8.42929e-07
    1.9448 -8.61996e-07
   1.95084 -9.41479e-07
   1.95623 -1.00333e-06
   1.96103 -1.08635e-06
    1.9653 -1.10098e-06
   1.96911 -1.01887e-06
    1.9725 -9.21625e-07
   1.97552 -8.50527e-07
   1.97822 -7.88013e-07
   1.98061 -7.18634e-07
   1.98275 -6.34048e-07
   1.98466 -5.33767e-07
   1.98635 -4.27783e-07
   1.98786 -3.2884e-07
   1.98921 -2.45687e-07
   1.99041 -1.81109e-07
   1.99148 -1.33421e-07
   1.99243 -9.89688e-08
   1.99333 -7.27634e-08
   1.99421 -5.15475e-08
    1.9951 -3.44728e-08
     1.996 -2.10901e-08
   1.99689 -1.11916e-08
   1.99777 -4.66794e-09
   1.99867 -1.2318e-09
   1.99956 -8.12517e-11
         2          0
