         0          0
  0.000445 2.63503e-07
  0.001335 2.37394e-06
  0.002225 6.58133e-06
  0.003115 1.28212e-05
  0.004005 2.09608e-05
  0.004895 3.0802e-05
  0.005785 4.20988e-05
  0.006675 5.45823e-05
0.00756867 6.80415e-05
0.00852095 8.31401e-05
0.00958982 0.000100663
 0.0107896 0.000120675
 0.0121362 0.000143158
 0.0136477 0.000168021
 0.0153442 0.000195117
 0.0172484 0.000224235
 0.0193858 0.000254964
 0.0217849 0.000286436
 0.0244777 0.000317211
 0.0275001 0.000345603
 0.0308926 0.000369999
 0.0347005 0.000388525
 0.0389746 0.000399233
 0.0437719 0.000401856
 0.0491566 0.000397204
 0.0552005 0.000385942
 0.0619844 0.000370445
 0.0695988 0.000351062
 0.0781455 0.000325915
 0.0877386 0.000304947
 0.0985062 0.000298871
  0.110592 0.000294828
  0.124158 0.000317496
  0.139384 0.000363517
  0.156474 0.000431977
  0.175657 0.000484207
  0.197189 0.000473892
  0.221357 0.000476133
  0.248483 0.000549091
  0.278931 0.000578869
  0.314615 0.000642942
   0.35378 0.000668009
  0.392945 0.000708964
   0.43211 0.000708206
  0.471275 0.000785736
   0.51044 0.000694108
  0.549604 0.000743238
  0.588769 0.000620895
  0.627934 0.000602125
  0.667099 0.000672562
  0.706264 0.00069391
  0.745429 0.000663943
  0.784593 0.000612368
  0.823758 0.000381739
  0.862923 0.000111506
  0.902088 -0.000111252
  0.941253 -2.95922e-05
  0.980418 -1.14968e-05
   1.01958 -1.22965e-05
   1.05875 -5.93045e-05
   1.09791 -8.37324e-05
   1.13708 -0.000166207
   1.17624 -0.000303111
   1.21541 -0.000447904
   1.25457 -0.00057917
   1.29374 -0.00069297
    1.3329 -0.000938017
   1.37207 -0.00111683
   1.41123 -0.00123926
    1.4504 -0.00117074
   1.48956 -0.0010797
   1.52873 -0.0010095
   1.56789 -0.000971136
   1.60706 -0.000869575
   1.64622 -0.000703272
   1.68539 -0.000649058
   1.72107 -0.000459977
   1.75152 -0.000337787
   1.77865 -0.000314831
   1.80281 -0.00028597
   1.82434 -0.000200457
   1.84353 -0.000204607
   1.86062 -0.000208678
   1.87584 -0.000215677
   1.88941 -0.000226548
    1.9015 -0.000239383
   1.91226 -0.000245858
   1.92186 -0.000258341
    1.9304 -0.000270794
   1.93802 -0.000276302
    1.9448 -0.000274263
   1.95084 -0.000272577
   1.95623 -0.000274251
   1.96103 -0.000277612
    1.9653 -0.0002801
   1.96911 -0.000277611
    1.9725 -0.000268421
   1.97552 -0.000254062
   1.97822 -0.000236571
   1.98061 -0.000217229
   1.98275 -0.000196646
   1.98466 -0.000175225
   1.98635 -0.000153465
   1.98786 -0.000132037
   1.98921 -0.000111673
   1.99041 -9.30064e-05
   1.99148 -7.64529e-05
   1.99243 -6.21761e-05
   1.99333 -4.95238e-05
   1.99421 -3.79082e-05
    1.9951 -2.75275e-05
     1.996 -1.86013e-05
   1.99689 -1.13079e-05
   1.99777 -5.77499e-06
   1.99867 -2.07471e-06
   1.99956 -2.29442e-07
         2          0
