         0          0
  0.000445 2.58064e-07
  0.001335 7.42476e-07
  0.002225 1.04816e-06
  0.003115 1.03827e-06
  0.004005 8.88608e-07
  0.004895 6.88543e-07
  0.005785 4.82887e-07
  0.006675 3.82413e-07
0.00756867 4.98374e-07
0.00852095 5.72788e-07
0.00958982 3.42673e-07
 0.0107896 -3.01078e-07
 0.0121362 -1.53998e-06
 0.0136477 -3.6504e-06
 0.0153442 -6.88285e-06
 0.0172484 -1.13004e-05
 0.0193858 -1.66337e-05
 0.0217849 -2.22228e-05
 0.0244777 -2.70823e-05
 0.0275001 -3.01447e-05
 0.0308926 -3.05658e-05
 0.0347005 -2.77955e-05
 0.0389746 -2.16216e-05
 0.0437719 -1.27179e-05
 0.0491566 -3.75119e-06
 0.0552005 4.33987e-06
 0.0619844 9.75908e-06
 0.0695988 1.29545e-05
 0.0781455 1.17796e-05
 0.0877386 9.94658e-06
 0.0985062 3.30689e-06
  0.110592 3.70526e-06
  0.124158 -7.70967e-06
  0.139384 1.22779e-06
  0.156474 -1.81911e-05
  0.175657 8.17809e-06
  0.197189 -3.0846e-05
  0.221357 2.50563e-05
  0.248483 -4.89482e-05
  0.278931 2.76919e-05
  0.314615 3.93589e-06
   0.35378 -5.31058e-05
  0.392945 3.35561e-05
   0.43211 -3.46512e-05
  0.471275 1.99096e-05
   0.51044 -2.518e-05
  0.549604 1.65335e-05
  0.588769 -1.89461e-05
  0.627934 9.88788e-06
  0.667099 -8.88366e-06
  0.706264 3.92548e-06
  0.745429 -3.73129e-06
  0.784593 3.1708e-06
  0.823758 -5.82666e-06
  0.862923 4.93416e-06
  0.902088 -1.92738e-06
  0.941253 3.47568e-06
  0.980418 -6.5182e-06
   1.01958 1.10015e-05
   1.05875 -1.31623e-05
   1.09791 1.43055e-05
   1.13708 -1.57034e-05
   1.17624 1.49473e-05
   1.21541 -1.40824e-05
   1.25457 1.53227e-05
   1.29374 -1.50106e-05
    1.3329 1.80139e-05
   1.37207 -1.63431e-05
   1.41123 2.48364e-05
    1.4504 -2.38095e-05
   1.48956 3.56025e-05
   1.52873 -3.26727e-05
   1.56789 4.76351e-05
   1.60706 -4.32555e-05
   1.64622 6.46918e-05
   1.68539 -2.09662e-05
   1.72107 -1.05127e-05
   1.75152 3.06821e-05
   1.77865 -7.50757e-06
   1.80281 1.62914e-05
   1.82434 5.22177e-06
   1.84353 5.78638e-06
   1.86062 6.55503e-06
   1.87584 2.22185e-06
   1.88941 7.40433e-07
    1.9015 -4.85053e-06
   1.91226 -8.25435e-06
   1.92186 -1.28299e-05
    1.9304 -1.33065e-05
   1.93802 -1.03845e-05
    1.9448 -4.426e-06
   1.95084 4.33302e-06
   1.95623 1.33963e-05
   1.96103 2.13385e-05
    1.9653 2.74982e-05
   1.96911 3.05578e-05
    1.9725 3.02304e-05
   1.97552 2.70909e-05
   1.97822 2.2146e-05
   1.98061 1.6544e-05
   1.98275 1.12356e-05
   1.98466 6.84474e-06
   1.98635 3.62996e-06
   1.98786 1.52969e-06
   1.98921 2.96562e-07
   1.99041 -3.43967e-07
   1.99148 -5.7246e-07
   1.99243 -4.97938e-07
   1.99333 -3.82428e-07
   1.99421 -4.82162e-07
    1.9951 -6.861e-07
     1.996 -8.84115e-07
   1.99689 -1.03191e-06
   1.99777 -1.04102e-06
   1.99867 -7.37167e-07
   1.99956 -2.56191e-07
         2          0
