         0          0
  0.000445 -1.15996e-10
  0.001335 -2.38204e-09
  0.002225 -9.76672e-09
  0.003115 -2.43247e-08
  0.004005 -4.64932e-08
  0.004895 -7.53386e-08
  0.005785 -1.08993e-07
  0.006675 -1.45209e-07
0.00756867 -1.8206e-07
0.00852095 -2.20236e-07
0.00958982 -2.60218e-07
 0.0107896 -3.00983e-07
 0.0121362 -3.42936e-07
 0.0136477 -3.8831e-07
 0.0153442 -4.39752e-07
 0.0172484 -4.99097e-07
 0.0193858 -5.69973e-07
 0.0217849 -6.59578e-07
 0.0244777 -7.69773e-07
 0.0275001 -8.93078e-07
 0.0308926 -1.01594e-06
 0.0347005 -1.13623e-06
 0.0389746 -1.25338e-06
 0.0437719 -1.34792e-06
 0.0491566 -1.40813e-06
 0.0552005 -1.44028e-06
 0.0619844 -1.35776e-06
 0.0695988 -1.26239e-06
 0.0781455 -1.28051e-06
 0.0877386 -1.10574e-06
 0.0985062 -8.88856e-07
  0.110592 -9.07668e-07
  0.124158 -3.31856e-07
  0.139384 -3.14571e-07
  0.156474 3.08877e-07
  0.175657 5.20953e-07
  0.197189 7.79312e-07
  0.221357 1.1042e-06
  0.248483 2.11745e-06
  0.278931 6.94473e-07
  0.314615 2.85014e-06
   0.35378 1.79618e-06
  0.392945 3.39016e-06
   0.43211 2.7145e-06
  0.471275 5.39305e-06
   0.51044 3.68204e-06
  0.549604 4.62878e-06
  0.588769 4.73664e-06
  0.627934 5.52333e-06
  0.667099 5.49236e-06
  0.706264 5.30444e-06
  0.745429 5.39583e-06
  0.784593 5.30741e-06
  0.823758 4.94827e-06
  0.862923 4.95633e-06
  0.902088 5.19596e-06
  0.941253 5.07317e-06
  0.980418 4.74875e-06
   1.01958 4.72567e-06
   1.05875 4.50865e-06
   1.09791 4.31519e-06
   1.13708 3.98486e-06
   1.17624 3.69283e-06
   1.21541 3.45804e-06
   1.25457 2.87399e-06
   1.29374 3.9821e-06
    1.3329 2.69752e-06
   1.37207 4.02618e-06
   1.41123 2.76555e-06
    1.4504 3.90956e-06
   1.48956 3.55757e-06
   1.52873 3.97686e-06
   1.56789 3.35163e-06
   1.60706 2.97921e-06
   1.64622 2.25002e-06
   1.68539 2.35572e-06
   1.72107 2.12112e-06
   1.75152 1.35029e-06
   1.77865 1.01749e-06
   1.80281 4.90986e-07
   1.82434 4.9983e-07
   1.84353 -6.13051e-08
   1.86062 -1.85608e-07
   1.87584 -4.71687e-07
   1.88941 -5.53426e-07
    1.9015 -7.44815e-07
   1.91226 -6.66246e-07
   1.92186 -8.11161e-07
    1.9304 -8.07646e-07
   1.93802 -8.16432e-07
    1.9448 -8.5202e-07
   1.95084 -9.38904e-07
   1.95623 -1.00411e-06
   1.96103 -1.08765e-06
    1.9653 -1.10019e-06
   1.96911 -1.01548e-06
    1.9725 -9.16779e-07
   1.97552 -8.456e-07
   1.97822 -7.83904e-07
   1.98061 -7.15732e-07
   1.98275 -6.3236e-07
   1.98466 -5.32999e-07
   1.98635 -4.2754e-07
   1.98786 -3.28806e-07
   1.98921 -2.45686e-07
   1.99041 -1.8107e-07
   1.99148 -1.33328e-07
   1.99243 -9.88247e-08
   1.99333 -7.26057e-08
   1.99421 -5.14341e-08
    1.9951 -3.44226e-08
     1.996 -2.10931e-08
   1.99689 -1.12256e-08
   1.99777 -4.70559e-09
   1.99867 -1.25054e-09
   1.99956 -8.36387e-11
         2          0
