         0          0
  0.000445 2.89799e-08
  0.001335 2.65915e-07
  0.002225 7.4353e-07
  0.003115 1.44646e-06
  0.004005 2.33614e-06
  0.004895 3.35651e-06
  0.005785 4.44478e-06
  0.006675 5.54075e-06
0.00756867 6.59611e-06
0.00852095 7.62589e-06
0.00958982 8.6078e-06
 0.0107896 9.44064e-06
 0.0121362 1.00056e-05
 0.0136477 1.02018e-05
 0.0153442 1.00051e-05
 0.0172484 9.50103e-06
 0.0193858 8.82688e-06
 0.0217849 8.05515e-06
 0.0244777 7.1365e-06
 0.0275001 6.08843e-06
 0.0308926 5.21158e-06
 0.0347005 4.82471e-06
 0.0389746 4.82109e-06
 0.0437719 4.94911e-06
 0.0491566 4.80292e-06
 0.0552005 3.84367e-06
 0.0619844 2.67606e-06
 0.0695988 1.54255e-06
 0.0781455 -2.38852e-09
 0.0877386 -3.35294e-06
 0.0985062 -6.15267e-06
  0.110592 -7.75312e-06
  0.124158 -8.39676e-06
  0.139384 -1.02338e-05
  0.156474 -1.32458e-05
  0.175657 -1.49258e-05
  0.197189 -1.76839e-05
  0.221357 -2.10363e-05
  0.248483 -2.51927e-05
  0.278931 -1.62427e-05
  0.314615 -9.78913e-06
   0.35378 -9.17976e-06
  0.392945 -1.80684e-05
   0.43211 -2.6521e-05
  0.471275 -2.7165e-05
   0.51044 -2.02633e-05
  0.549604 -1.35128e-05
  0.588769 -8.50528e-06
  0.627934 -1.76474e-05
  0.667099 -2.06596e-05
  0.706264 -2.02556e-05
  0.745429 -1.74393e-05
  0.784593 -1.28946e-05
  0.823758 -7.10529e-06
  0.862923 -1.47923e-06
  0.902088 1.39034e-06
  0.941253 2.82474e-06
  0.980418 4.59835e-06
   1.01958 5.12361e-06
   1.05875 6.8507e-06
   1.09791 8.45105e-06
   1.13708 8.07853e-06
   1.17624 1.00679e-05
   1.21541 9.13459e-06
   1.25457 5.91831e-06
   1.29374 -4.32467e-06
    1.3329 -8.9898e-06
   1.37207 -9.45524e-06
   1.41123 -1.05007e-05
    1.4504 -3.67631e-06
   1.48956 -4.0766e-06
   1.52873 -9.86366e-07
   1.56789 4.49354e-06
   1.60706 3.81834e-06
   1.64622 3.76346e-06
   1.68539 3.30594e-06
   1.72107 1.9164e-06
   1.75152 8.9167e-06
   1.77865 1.48024e-05
   1.80281 1.33803e-05
   1.82434 1.34027e-05
   1.84353 1.21019e-05
   1.86062 8.98424e-06
   1.87584 4.28605e-06
   1.88941 3.93619e-06
    1.9015 2.69493e-06
   1.91226 1.89776e-06
   1.92186 1.4104e-08
    1.9304 -1.87444e-06
   1.93802 -2.25721e-06
    1.9448 -1.47135e-06
   1.95084 -7.10032e-07
   1.95623 -1.0455e-06
   1.96103 -2.41977e-06
    1.9653 -4.32049e-06
   1.96911 -6.52249e-06
    1.9725 -8.64577e-06
   1.97552 -1.02872e-05
   1.97822 -1.13694e-05
   1.98061 -1.21082e-05
   1.98275 -1.25897e-05
   1.98466 -1.27667e-05
   1.98635 -1.25452e-05
   1.98786 -1.18711e-05
   1.98921 -1.07973e-05
   1.99041 -9.46929e-06
   1.99148 -8.05724e-06
   1.99243 -6.69676e-06
   1.99333 -5.40421e-06
   1.99421 -4.16104e-06
    1.9951 -3.01546e-06
     1.996 -2.01483e-06
   1.99689 -1.19862e-06
   1.99777 -5.92823e-07
   1.99867 -2.04317e-07
   1.99956 -2.13552e-08
         2          0
