         0  0.0272184
  0.000445  0.0272102
  0.001335  0.0271563
  0.002225  0.0270037
  0.003115   0.026717
  0.004005  0.0262866
  0.004895  0.0257286
  0.005785  0.0250768
  0.006675   0.024373
0.00756867  0.0236533
0.00852095  0.0229052
0.00958982  0.0221113
 0.0107896  0.0212811
 0.0121362  0.0203975
 0.0136477  0.0194125
 0.0153442  0.0182619
 0.0172484  0.0168716
 0.0193858  0.0151461
 0.0217849  0.0130032
 0.0244777   0.010462
 0.0275001 0.00763978
 0.0308926 0.00465116
 0.0347005 0.00167736
 0.0389746 -0.000854925
 0.0437719 -0.00258487
 0.0491566 -0.00356715
 0.0552005 -0.00397521
 0.0619844 -0.00407609
 0.0695988  -0.004203
 0.0781455 -0.00360431
 0.0877386 -0.00188281
 0.0985062 -0.000767954
  0.110592 0.000495965
  0.124158 0.00249848
  0.139384 0.00389539
  0.156474 0.00362854
  0.175657 0.00101352
  0.197189 -0.000450609
  0.221357 0.00128116
  0.248483  0.0015289
  0.278931 0.000814087
  0.314615 0.000756591
   0.35378 0.000576359
  0.392945 0.000394055
   0.43211 0.000749991
  0.471275 -0.000519575
   0.51044 -0.000908619
  0.549604 -0.00118454
  0.588769 -0.00178687
  0.627934 0.000610177
  0.667099 0.000972337
  0.706264 -0.000260138
  0.745429 -0.0011336
  0.784593 -0.00341049
  0.823758 -0.00585014
  0.862923 -0.00567715
  0.902088 -0.00164452
  0.941253 0.00108356
  0.980418 0.000176154
   1.01958 -0.000543572
   1.05875 -0.000811934
   1.09791 -0.00118848
   1.13708 -0.00247724
   1.17624 -0.0032166
   1.21541 -0.00313643
   1.25457 -0.0027283
   1.29374 -0.00410314
    1.3329 -0.00505862
   1.37207 -0.00377301
   1.41123 -0.00100556
    1.4504 0.00150879
   1.48956 0.00161223
   1.52873 0.000917689
   1.56789 0.00130991
   1.60706 0.00300258
   1.64622 0.00247215
   1.68539 0.00316597
   1.72107 0.00449279
   1.75152 0.00206309
   1.77865 0.00073176
   1.80281 0.00261696
   1.82434 0.00187048
   1.84353 -0.000381325
   1.86062 -0.00038908
   1.87584 -0.000839048
   1.88941 -0.00136045
    1.9015 -0.00128018
   1.91226 -0.00148307
   1.92186 -0.00204874
    1.9304 -0.00191408
   1.93802 -0.0011543
    1.9448 -0.00080735
   1.95084 -0.00135697
   1.95623 -0.00209741
   1.96103 -0.00249217
    1.9653 -0.00190232
   1.96911 -1.59019e-05
    1.9725 0.00237403
   1.97552  0.0044857
   1.97822 0.00631336
   1.98061 0.00816866
   1.98275   0.010246
   1.98466  0.0125414
   1.98635  0.0148814
   1.98786  0.0170397
   1.98921  0.0188562
   1.99041  0.0202782
   1.99148  0.0213378
   1.99243  0.0221076
   1.99333  0.0226897
   1.99421  0.0231573
    1.9951  0.0235301
     1.996  0.0238199
   1.99689   0.024034
   1.99777  0.0241775
   1.99867  0.0242583
   1.99956  0.0242901
         2  0.0242961
