         0 -2.27005e-18
  0.000445 8.90621e-18
  0.001335 9.1247e-17
  0.002225 2.43308e-16
  0.003115 2.36344e-16
  0.004005 6.27765e-17
  0.004895 1.78435e-16
  0.005785 1.25127e-16
  0.006675 1.47811e-16
0.00756867 -9.49107e-17
0.00852095 -2.61924e-16
0.00958982 -3.54312e-16
 0.0107896 2.99085e-16
 0.0121362 -7.91545e-17
 0.0136477 -8.11617e-16
 0.0153442 -1.79217e-16
 0.0172484 7.56408e-16
 0.0193858 1.96536e-16
 0.0217849 -7.22267e-17
 0.0244777 -6.00657e-16
 0.0275001 -1.79661e-16
 0.0308926 -6.99174e-17
 0.0347005 -2.87628e-16
 0.0389746 1.13687e-18
 0.0437719 -3.46851e-16
 0.0491566 -4.24123e-16
 0.0552005 -5.74474e-17
 0.0619844 1.64277e-16
 0.0695988 4.66684e-16
 0.0781455 -3.45413e-17
 0.0877386 -9.98934e-17
 0.0985062 -6.64002e-17
  0.110592 4.78062e-18
  0.124158 4.08118e-17
  0.139384 1.51008e-16
  0.156474 2.45786e-16
  0.175657 7.35989e-17
  0.197189 2.53948e-16
  0.221357 -5.15143e-18
  0.248483 -2.2311e-17
  0.278931 -9.00324e-17
  0.314615 9.06009e-17
   0.35378 1.79479e-17
  0.392945 -9.36351e-17
   0.43211 1.0453e-16
  0.471275 -8.52296e-17
   0.51044 1.8642e-16
  0.549604 -5.5107e-17
  0.588769 -1.61262e-16
  0.627934 -5.52686e-17
  0.667099 7.56073e-17
  0.706264 9.38805e-18
  0.745429 -5.55989e-17
  0.784593 -3.44191e-17
  0.823758 -5.01776e-17
  0.862923 -4.98535e-17
  0.902088 5.71276e-17
  0.941253 -6.10167e-17
  0.980418 -1.61648e-17
   1.01958 -4.20841e-17
   1.05875 3.79019e-17
   1.09791 -7.96596e-17
   1.13708 4.09728e-18
   1.17624 -1.94289e-18
   1.21541 -9.39759e-17
   1.25457 5.33129e-18
   1.29374 -6.35736e-17
    1.3329 -6.0596e-18
   1.37207 -1.5117e-16
   1.41123 1.1033e-16
    1.4504 -8.49121e-17
   1.48956 1.06659e-17
   1.52873 7.89563e-17
   1.56789 1.6787e-16
   1.60706 -7.50267e-17
   1.64622 -1.85554e-16
   1.68539 8.46123e-17
   1.72107 -4.00968e-17
   1.75152 1.74047e-16
   1.77865 -1.2281e-16
   1.80281 -6.48015e-17
   1.82434 -3.88267e-16
   1.84353 -4.76152e-17
   1.86062 5.23492e-17
   1.87584 -1.37046e-16
   1.88941 -3.72109e-16
    1.9015 -4.85816e-16
   1.91226 2.89548e-16
   1.92186 -4.4643e-16
    1.9304 1.19474e-15
   1.93802 -6.99236e-16
    1.9448 1.66214e-16
   1.95084 1.21538e-16
   1.95623 -1.87619e-15
   1.96103 2.71321e-16
    1.9653 -4.14424e-16
   1.96911 -9.37703e-16
    1.9725 -2.98794e-15
   1.97552 7.21592e-16
   1.97822 -3.22096e-15
   1.98061 2.38572e-15
   1.98275 -4.74035e-15
   1.98466 -1.66729e-16
   1.98635 1.6032e-15
   1.98786 -8.74429e-16
   1.98921 5.09225e-15
   1.99041 -9.85658e-15
   1.99148 4.71022e-15
   1.99243 1.16354e-14
   1.99333 -8.39071e-15
   1.99421 3.84988e-15
    1.9951 -1.84897e-15
     1.996 -3.58504e-16
   1.99689 3.53565e-15
   1.99777 -2.58434e-15
   1.99867 1.97762e-15
   1.99956 -1.86867e-16
         2 -2.03199e-16
