         0 -2.79203e-19
  0.000445 4.20448e-18
  0.001335 1.21853e-17
  0.002225 -2.35811e-18
  0.003115 1.81369e-17
  0.004005 2.28839e-17
  0.004895 3.14354e-17
  0.005785 6.22066e-17
  0.006675 2.76043e-17
0.00756867 -6.66633e-18
0.00852095 1.80167e-17
0.00958982 -1.25094e-17
 0.0107896 1.91619e-17
 0.0121362 6.72257e-17
 0.0136477 -4.15074e-17
 0.0153442 7.0956e-17
 0.0172484 -5.42805e-17
 0.0193858 1.47055e-17
 0.0217849 7.44022e-17
 0.0244777 -7.82319e-18
 0.0275001 -4.97419e-17
 0.0308926 -1.93895e-17
 0.0347005 -3.25351e-18
 0.0389746 2.30838e-17
 0.0437719 -7.13984e-18
 0.0491566 2.87576e-17
 0.0552005 9.5729e-18
 0.0619844 3.76432e-17
 0.0695988 -2.44543e-17
 0.0781455 -3.17729e-17
 0.0877386 -9.32687e-17
 0.0985062 7.99805e-18
  0.110592 2.47474e-17
  0.124158 -9.89764e-18
  0.139384 1.50119e-17
  0.156474 -9.40542e-17
  0.175657 1.1274e-17
  0.197189 -1.51386e-17
  0.221357 -3.33047e-17
  0.248483 -3.73013e-17
  0.278931 -1.23099e-17
  0.314615 3.60054e-17
   0.35378 -2.65801e-18
  0.392945 -7.36688e-18
   0.43211 2.22569e-17
  0.471275 -2.23765e-18
   0.51044 6.67966e-18
  0.549604 4.87957e-18
  0.588769 -4.00521e-17
  0.627934 -3.72771e-18
  0.667099 3.26573e-17
  0.706264 1.89695e-17
  0.745429 3.07693e-17
  0.784593 -3.61642e-17
  0.823758 -1.92348e-17
  0.862923 9.58381e-18
  0.902088 1.28841e-17
  0.941253 -1.82087e-17
  0.980418 -2.70159e-17
   1.01958 -3.14515e-17
   1.05875 2.19254e-17
   1.09791 1.40793e-17
   1.13708 -1.77854e-18
   1.17624 -1.45751e-19
   1.21541 -1.3023e-17
   1.25457 2.83834e-17
   1.29374 2.09812e-17
    1.3329 -1.45576e-17
   1.37207 -4.09652e-17
   1.41123 -5.64507e-18
    1.4504 5.10152e-17
   1.48956 4.32568e-17
   1.52873 -5.58648e-17
   1.56789 3.91839e-18
   1.60706 3.1737e-17
   1.64622 3.54706e-17
   1.68539 2.73635e-17
   1.72107 6.33105e-18
   1.75152 1.78169e-17
   1.77865 -2.14431e-17
   1.80281 -3.0162e-18
   1.82434 4.20525e-18
   1.84353 1.12532e-17
   1.86062 -9.08995e-18
   1.87584 1.58595e-18
   1.88941 3.68483e-17
    1.9015 4.13836e-17
   1.91226 -2.42334e-17
   1.92186 -7.05158e-18
    1.9304 -5.92665e-17
   1.93802 4.08845e-17
    1.9448 -4.47642e-18
   1.95084 -2.37532e-18
   1.95623 9.74998e-17
   1.96103 -4.65367e-17
    1.9653 1.22818e-17
   1.96911 -2.37405e-17
    1.9725 -3.38951e-17
   1.97552 -7.46225e-17
   1.97822 5.25979e-17
   1.98061 -3.37963e-17
   1.98275 -1.26402e-16
   1.98466 -5.86997e-17
   1.98635 -2.11743e-16
   1.98786 6.70221e-16
   1.98921 -4.34408e-16
   1.99041 -6.05154e-16
   1.99148 4.23364e-16
   1.99243 -4.90208e-17
   1.99333 1.90476e-16
   1.99421 -5.23377e-16
    1.9951 -4.00474e-17
     1.996 -2.41541e-16
   1.99689 1.2886e-16
   1.99777 -8.65252e-18
   1.99867 -1.14225e-16
   1.99956 -5.30992e-18
         2 -2.38779e-18
