         0 -0.00068483
  0.000445 -0.00058108
  0.001335 -0.00107757
  0.002225 -0.000213092
  0.003115 0.00223616
  0.004005 0.00618353
  0.004895  0.0113758
  0.005785  0.0175371
  0.006675  0.0244394
0.00756867  0.0319117
0.00852095  0.0401938
0.00958982  0.0494383
 0.0107896   0.059215
 0.0121362  0.0689504
 0.0136477  0.0780235
 0.0153442  0.0857289
 0.0172484  0.0912385
 0.0193858  0.0937652
 0.0217849   0.092416
 0.0244777  0.0856175
 0.0275001   0.072368
 0.0308926  0.0543478
 0.0347005  0.0358737
 0.0389746   0.020807
 0.0437719  0.0100797
 0.0491566 0.00183948
 0.0552005 -0.00555727
 0.0619844 -0.0125207
 0.0695988 -0.0182173
 0.0781455 -0.0191526
 0.0877386 -0.0166444
 0.0985062 -0.0128648
  0.110592 -0.00634455
  0.124158 -0.00101675
  0.139384 0.00138855
  0.156474 0.00294071
  0.175657 0.00315144
  0.197189 0.00110869
  0.221357 0.00251262
  0.248483 0.00584089
  0.278931  0.0046815
  0.314615 0.00158675
   0.35378 0.00177723
  0.392945 0.000856421
   0.43211 0.00155972
  0.471275 0.00222887
   0.51044 -0.000525216
  0.549604 -0.00243283
  0.588769 -0.00180764
  0.627934 -0.00184074
  0.667099 -0.00159724
  0.706264 -0.00126332
  0.745429 -0.00125924
  0.784593 -0.00194636
  0.823758 -0.00189859
  0.862923 -0.000760208
  0.902088 0.000407848
  0.941253 0.00056008
  0.980418 -0.000217937
   1.01958 -0.000460422
   1.05875 -0.000905344
   1.09791 -0.0013195
   1.13708 -0.00160755
   1.17624 -0.00115371
   1.21541 -0.00111566
   1.25457 -0.0019773
   1.29374 -0.00326635
    1.3329 -0.00434119
   1.37207 -0.00425544
   1.41123 -0.00134035
    1.4504 0.000371955
   1.48956 0.000229624
   1.52873 0.000879147
   1.56789 0.00108505
   1.60706 0.00269602
   1.64622 0.00359295
   1.68539 0.00154308
   1.72107  0.0015896
   1.75152 0.00271469
   1.77865 0.000562474
   1.80281 -0.000381769
   1.82434 -0.000842855
   1.84353 -0.00478887
   1.86062 -0.00698679
   1.87584 -0.00817659
   1.88941 -0.00847044
    1.9015 -0.00521273
   1.91226 -0.00241587
   1.92186 -0.000132531
    1.9304 0.00144763
   1.93802 0.00160954
    1.9448 0.00207969
   1.95084 0.00357439
   1.95623 0.00537627
   1.96103 0.00756055
    1.9653  0.0103638
   1.96911  0.0156968
    1.9725  0.0261243
   1.97552  0.0412058
   1.97822  0.0579508
   1.98061  0.0737447
   1.98275  0.0868292
   1.98466  0.0957313
   1.98635  0.0994459
   1.98786  0.0976272
   1.98921  0.0908373
   1.99041  0.0804983
   1.99148  0.0684123
   1.99243  0.0561859
   1.99333  0.0443206
   1.99421  0.0329334
    1.9951   0.022627
     1.996  0.0139228
   1.99689 0.00720782
   1.99777  0.0027087
   1.99867 0.000404096
   1.99956 -0.000121879
         2 -0.000241067
