         0   -0.14635
  0.000445  -0.148389
  0.001335  -0.151778
  0.002225  -0.150794
  0.003115   -0.14335
  0.004005  -0.129629
  0.004895  -0.111351
  0.005785 -0.0905151
  0.006675 -0.0686897
0.00756867 -0.0469382
0.00852095 -0.0250412
0.00958982 -0.00330059
 0.0107896  0.0155116
 0.0121362   0.027329
 0.0136477  0.0295164
 0.0153442  0.0249147
 0.0172484  0.0210813
 0.0193858  0.0232099
 0.0217849  0.0291991
 0.0244777  0.0277967
 0.0275001  0.0127965
 0.0308926 -0.0029719
 0.0347005 -0.00811793
 0.0389746 -0.0104305
 0.0437719 -0.0139683
 0.0491566 -0.0195801
 0.0552005 -0.0228025
 0.0619844 -0.0245486
 0.0695988  -0.026813
 0.0781455  -0.025078
 0.0877386 -0.0232244
 0.0985062 -0.0158257
  0.110592 -0.00928983
  0.124158 -0.00425187
  0.139384 -0.00276435
  0.156474 -0.00252333
  0.175657 0.00206874
  0.197189 0.00425998
  0.221357 0.00288387
  0.248483  0.0035855
  0.278931 0.00188327
  0.314615  0.0011223
   0.35378 0.00422674
  0.392945 0.00230878
   0.43211 0.00144678
  0.471275 0.00137907
   0.51044 0.00159846
  0.549604 0.00026832
  0.588769 -3.0896e-05
  0.627934 -0.00170162
  0.667099 0.000394174
  0.706264 0.000204425
  0.745429 -0.000250964
  0.784593 0.00018192
  0.823758 0.000929317
  0.862923 0.00216366
  0.902088 0.00224747
  0.941253 0.00164565
  0.980418 0.00103399
   1.01958 0.00132122
   1.05875 0.00166502
   1.09791 0.00120371
   1.13708 0.000919358
   1.17624 0.000910305
   1.21541 0.000325735
   1.25457 0.000798958
   1.29374 0.000424401
    1.3329 0.000711982
   1.37207 0.00135261
   1.41123 0.000793163
    1.4504 0.000242744
   1.48956 0.000648377
   1.52873 -1.41635e-05
   1.56789 0.000510314
   1.60706 -0.00171901
   1.64622 -0.00348449
   1.68539 -7.14022e-05
   1.72107 -0.00135185
   1.75152  -0.002889
   1.77865 -0.00298097
   1.80281 -0.00341679
   1.82434 -0.000890844
   1.84353 0.00265516
   1.86062 0.00528312
   1.87584 0.00616324
   1.88941 0.00560379
    1.9015 0.00508123
   1.91226 0.00656539
   1.92186 0.00836083
    1.9304 0.00601145
   1.93802 0.00817844
    1.9448  0.0189691
   1.95084  0.0232581
   1.95623  0.0235047
   1.96103  0.0301796
    1.9653  0.0325741
   1.96911  0.0301124
    1.9725  0.0215184
   1.97552  0.0138165
   1.97822  0.0108508
   1.98061 0.00380718
   1.98275 -0.00887474
   1.98466 -0.0254087
   1.98635 -0.0412223
   1.98786 -0.0485789
   1.98921 -0.0424333
   1.99041 -0.0236748
   1.99148 0.00235473
   1.99243  0.0296156
   1.99333  0.0557011
   1.99421  0.0800013
    1.9951   0.101339
     1.996   0.118063
   1.99689   0.127852
   1.99777   0.129145
   1.99867   0.122929
   1.99956   0.112859
         2   0.107838
