         0 -0.0363797
  0.000445 -0.0361864
  0.001335 -0.0354794
  0.002225 -0.0343678
  0.003115 -0.0334023
  0.004005 -0.0331719
  0.004895 -0.0340517
  0.005785 -0.0360874
  0.006675  -0.039055
0.00756867 -0.0426325
0.00852095 -0.0467212
0.00958982 -0.0513486
 0.0107896 -0.0565957
 0.0121362 -0.0627554
 0.0136477 -0.0697295
 0.0153442 -0.0758616
 0.0172484 -0.0785999
 0.0193858 -0.0776834
 0.0217849 -0.0772186
 0.0244777  -0.082332
 0.0275001 -0.0929094
 0.0308926 -0.0987853
 0.0347005 -0.0828994
 0.0389746 -0.0425307
 0.0437719   -0.00462
 0.0491566 0.00429006
 0.0552005 -0.00499599
 0.0619844 -0.0132938
 0.0695988 -0.0189773
 0.0781455 -0.00383058
 0.0877386  0.0271427
 0.0985062  0.0227022
  0.110592 -0.00693001
  0.124158 -0.0131138
  0.139384 0.00777149
  0.156474 0.00697667
  0.175657 0.00171079
  0.197189  0.0317913
  0.221357  0.0104051
  0.248483 -0.0158398
  0.278931 -0.00839598
  0.314615 0.00510896
   0.35378  0.0284283
  0.392945 0.00629733
   0.43211 -0.00219878
  0.471275 -0.0021056
   0.51044 -0.0127464
  0.549604 -0.00571912
  0.588769  0.0116364
  0.627934  0.0340469
  0.667099  0.0268552
  0.706264 0.00108525
  0.745429 -0.0104765
  0.784593 0.00370109
  0.823758  0.0172069
  0.862923  0.0151893
  0.902088 0.00909436
  0.941253 -0.00307022
  0.980418 -0.0140604
   1.01958  -0.020248
   1.05875  -0.018056
   1.09791 -0.00877524
   1.13708 -0.000159451
   1.17624 0.00364574
   1.21541 0.00593558
   1.25457 -0.0105232
   1.29374 -0.0360642
    1.3329 -0.0188305
   1.37207 0.00199938
   1.41123 0.00420913
    1.4504  0.0117238
   1.48956  0.0104179
   1.52873  0.0094045
   1.56789 -0.00490305
   1.60706 -0.0046351
   1.64622  0.0386399
   1.68539  0.0308024
   1.72107  0.0192773
   1.75152  0.0443463
   1.77865  0.0119554
   1.80281 -0.0248253
   1.82434 -0.00410867
   1.84353  0.0147196
   1.86062 -0.00497766
   1.87584 -0.0172334
   1.88941 -0.00682849
    1.9015 0.000149063
   1.91226 -0.00271107
   1.92186 0.00448991
    1.9304 0.00342876
   1.93802 -0.0188288
    1.9448 -0.0275978
   1.95084 -0.0277908
   1.95623 -0.0318991
   1.96103 -0.0361858
    1.9653 -0.0394714
   1.96911 -0.0411602
    1.9725 -0.0380546
   1.97552 -0.0276332
   1.97822 -0.0121895
   1.98061 -0.00192979
   1.98275 -0.00558466
   1.98466 -0.0223888
   1.98635 -0.0452625
   1.98786 -0.0681674
   1.98921 -0.0889675
   1.99041  -0.107474
   1.99148  -0.123592
   1.99243  -0.137102
   1.99333  -0.148351
   1.99421  -0.157565
    1.9951  -0.164386
     1.996  -0.168806
   1.99689  -0.171214
   1.99777  -0.172228
   1.99867  -0.172467
   1.99956  -0.172427
         2   -0.17239
