         0 -0.000490036
 0.0002225 -0.000490036
 0.0006675 -0.00341748
 0.0011125 -0.00934292
 0.0015575 -0.0182654
 0.0020025  -0.029974
 0.0024475 -0.0440315
 0.0028925 -0.0598018
 0.0033375 -0.0765118
 0.0037825 -0.0933343
 0.0042275  -0.109475
 0.0046725  -0.124245
 0.0051175  -0.137113
 0.0055625  -0.147724
 0.0060075  -0.155902
 0.0064525  -0.161627
 0.0068975  -0.165007
 0.0073476  -0.166252
0.00781612  -0.165521
0.00831203   -0.16284
0.00883694  -0.158293
0.00939255  -0.152048
0.00998065  -0.144344
 0.0106031  -0.135469
  0.011262  -0.125739
 0.0119594   -0.11548
 0.0126977  -0.105003
  0.013479 -0.0945895
 0.0143061 -0.0844756
 0.0151815 -0.0748484
 0.0161082 -0.0658425
  0.017089 -0.0575434
 0.0181271  -0.049993
  0.019226 -0.0431982
 0.0203891 -0.0371393
 0.0216203 -0.0317783
 0.0229234 -0.0270647
 0.0243028 -0.0229405
 0.0257628 -0.0193448
 0.0273082  -0.016218
  0.028944 -0.0135046
 0.0306754 -0.0111537
 0.0325081 -0.0091226
 0.0344479 -0.0073715
 0.0365012 -0.0058688
 0.0386746 -0.00458199
  0.040975 -0.00347873
   0.04341 -0.00253273
 0.0459873 -0.00172589
 0.0487154 -0.00104025
  0.051603 -0.000456074
 0.0546595 3.86229e-05
 0.0578947 0.000445687
 0.0613191 0.000773785
 0.0649437 0.00104741
 0.0687803 0.00127522
 0.0728413 0.00145721
 0.0771397 0.00161081
 0.0816895 0.00174644
 0.0865054 0.00185533
 0.0916029 0.00193832
 0.0969985  0.0020016
   0.10271 0.00205212
  0.108755 0.00209825
  0.115153 0.00214242
  0.121926 0.00218063
  0.129095 0.00220559
  0.136683  0.0022298
  0.144715 0.00225098
  0.153216  0.0022736
  0.162214 0.00229419
  0.171739 0.00230265
  0.181821 0.00231368
  0.192492 0.00231915
  0.203788 0.00233436
  0.215744 0.00234077
  0.228399 0.00234688
  0.241794 0.00235092
  0.255972 0.00237233
   0.27098 0.00235408
  0.286865 0.00237751
  0.304824 0.00237467
  0.324407  0.0023424
  0.343989 0.00236067
  0.363571 0.00236733
  0.383154 0.00237521
  0.402736 0.00237599
  0.422319  0.0023704
  0.441901 0.00238038
  0.461484 0.00237262
  0.481066 0.00237638
  0.500648 0.00236428
  0.520231 0.00236751
  0.539813 0.00236969
  0.559396 0.00237251
  0.578978 0.00237105
   0.59856 0.00237282
  0.618143 0.00237145
  0.637725 0.00236925
  0.657308  0.0023642
   0.67689 0.00237218
  0.696473 0.00237423
  0.716055 0.00237174
  0.735637 0.00236618
   0.75522 0.00236623
  0.774802 0.00235935
  0.794385 0.00235531
  0.813967 0.00236032
  0.833549 0.00235571
  0.853132 0.00235674
  0.872714 0.00235715
  0.892297 0.00235555
  0.911879 0.00234906
  0.931462 0.00234309
  0.951044 0.00234473
  0.970626 0.00235134
  0.990209 0.00235711
   1.00979 0.00235472
   1.02937  0.0023606
   1.04896 0.00237176
   1.06854  0.0023759
   1.08812 0.00237798
    1.1077 0.00238175
   1.12729 0.00238305
   1.14687 0.00238441
   1.16645  0.0023871
   1.18603 0.00238897
   1.20562 0.00239678
    1.2252 0.00240443
   1.24478 0.00240973
   1.26436 0.00241429
   1.28395 0.00241486
   1.30353 0.00241083
   1.32311 0.00240639
   1.34269 0.00241238
   1.36228 0.00241735
   1.38186 0.00241608
   1.40144   0.002417
   1.42102 0.00242019
   1.44061 0.00242665
   1.46019  0.0024314
   1.47977 0.00242808
   1.49935 0.00243431
   1.51894 0.00242969
   1.53852 0.00242107
    1.5581 0.00242387
   1.57768 0.00241023
   1.59727 0.00239279
   1.61685 0.00239121
   1.63643 0.00236682
   1.65601 0.00237726
    1.6756 0.00235745
   1.69518 0.00236325
   1.71314 0.00235809
   1.72902 0.00233368
   1.74403  0.0023447
   1.75821 0.00232637
    1.7716 0.00232031
   1.78426 0.00229918
   1.79621 0.00229337
   1.80751 0.00227774
   1.81818 0.00226689
   1.82826 0.00224816
   1.83779 0.00222615
   1.84679 0.00220091
   1.85529   0.002182
   1.86332 0.00216061
   1.87091 0.00213718
   1.87808 0.00211234
   1.88485  0.0020829
   1.89125 0.00204242
   1.89729 0.00199475
     1.903 0.00194201
    1.9084 0.00187097
    1.9135   0.001783
   1.91831 0.00167933
   1.92286 0.00155236
   1.92716 0.00139775
   1.93122  0.0012072
   1.93506 0.000980306
   1.93868 0.000711317
   1.94211 0.000381293
   1.94534 -2.25724e-05
    1.9484 -0.000504571
   1.95129 -0.00107622
   1.95401 -0.00175749
   1.95659 -0.00256393
   1.95903 -0.00351115
   1.96133 -0.00462244
    1.9635 -0.00592106
   1.96555 -0.00742839
   1.96749 -0.00917304
   1.96933  -0.011193
   1.97106 -0.0135313
   1.97269 -0.0162357
   1.97424  -0.019357
    1.9757  -0.022948
   1.97708 -0.0270637
   1.97838 -0.0317616
   1.97961 -0.0370986
   1.98077 -0.0431257
   1.98187 -0.0498815
   1.98291 -0.0573845
   1.98389 -0.0656257
   1.98482 -0.0745602
   1.98569 -0.0841003
   1.98652   -0.09411
    1.9873  -0.104402
   1.98804  -0.114742
   1.98874  -0.124851
    1.9894  -0.134422
   1.99002  -0.143137
   1.99061  -0.150682
   1.99116  -0.156777
   1.99169   -0.16119
   1.99218  -0.163757
   1.99265  -0.164399
    1.9931  -0.163093
   1.99355  -0.159684
   1.99399  -0.153965
   1.99444  -0.145834
   1.99488  -0.135314
   1.99533  -0.122581
   1.99577  -0.107983
   1.99622 -0.0920465
   1.99666  -0.075447
   1.99711 -0.0589657
   1.99755 -0.0434154
     1.998 -0.0295559
   1.99844 -0.0180124
   1.99889 -0.00921483
   1.99933 -0.00337127
   1.99978 -0.000483524
         2 -0.000483524
