         0 4.63621e-07
 0.0002225 4.63621e-07
 0.0006675 2.85598e-06
 0.0011125 7.2135e-06
 0.0015575 1.31389e-05
 0.0020025 2.01283e-05
 0.0024475 2.76434e-05
 0.0028925 3.51617e-05
 0.0033375 4.22208e-05
 0.0037825 4.84541e-05
 0.0042275 5.36115e-05
 0.0046725 5.75648e-05
 0.0051175 6.02934e-05
 0.0055625 6.18655e-05
 0.0060075 6.24091e-05
 0.0064525 6.20798e-05
 0.0068975 6.10435e-05
 0.0073476 5.94467e-05
0.00781612 5.73249e-05
0.00831203 5.4602e-05
0.00883694 5.1224e-05
0.00939255 4.71148e-05
0.00998065 4.21832e-05
 0.0106031 3.63894e-05
  0.011262 2.98073e-05
 0.0119594 2.27015e-05
 0.0126977 1.55839e-05
  0.013479 9.11152e-06
 0.0143061 3.94343e-06
 0.0151815 5.29741e-07
 0.0161082 -1.04037e-06
  0.017089 -1.06855e-06
 0.0181271 -1.0601e-07
  0.019226 1.21943e-06
 0.0203891 2.49436e-06
 0.0216203 3.72862e-06
 0.0229234 5.0997e-06
 0.0243028 6.71355e-06
 0.0257628 8.69115e-06
 0.0273082 1.1249e-05
  0.028944 1.4111e-05
 0.0306754 1.65569e-05
 0.0325081 1.82532e-05
 0.0344479 1.8459e-05
 0.0365012 1.59542e-05
 0.0386746 1.14968e-05
  0.040975 7.21674e-06
   0.04341 5.01149e-06
 0.0459873 3.35874e-06
 0.0487154 -7.98294e-07
  0.051603 -4.90422e-06
 0.0546595 -5.35365e-06
 0.0578947 -3.08971e-06
 0.0613191 -4.21372e-06
 0.0649437 -9.33562e-06
 0.0687803 -1.36948e-05
 0.0728413 -1.89877e-05
 0.0771397 -2.30923e-05
 0.0816895 -2.22317e-05
 0.0865054 -1.96645e-05
 0.0916029 -1.56104e-05
 0.0969985 -1.01931e-05
   0.10271 -8.09664e-06
  0.108755 -1.43037e-05
  0.115153 -1.88466e-05
  0.121926 -1.39712e-05
  0.129095 -1.21238e-05
  0.136683 -1.1211e-05
  0.144715 -1.144e-05
  0.153216 -1.24046e-05
  0.162214 -7.38128e-06
  0.171739 -7.98022e-06
  0.181821 -1.18347e-05
  0.192492 -2.34959e-05
  0.203788 -2.63225e-05
  0.215744 -2.37709e-05
  0.228399 -8.77964e-06
  0.241794 1.03098e-06
  0.255972 -5.65011e-06
   0.27098 -6.48736e-06
  0.286865 -1.7047e-05
  0.304824 8.77712e-07
  0.324407 2.67983e-06
  0.343989 3.53617e-06
  0.363571 1.88553e-06
  0.383154 -2.5397e-06
  0.402736 2.91954e-06
  0.422319 -1.6964e-06
  0.441901 -3.8729e-06
  0.461484 -1.67088e-06
  0.481066 -5.91037e-06
  0.500648 -7.17924e-06
  0.520231 5.73464e-06
  0.539813 1.4386e-05
  0.559396 1.22062e-05
  0.578978 9.94343e-06
   0.59856 1.25445e-05
  0.618143 1.16707e-05
  0.637725 9.41048e-06
  0.657308 3.43652e-06
   0.67689 1.43854e-06
  0.696473 -2.49127e-08
  0.716055 -1.20322e-07
  0.735637 -4.20586e-06
   0.75522 -5.74711e-06
  0.774802 -1.63111e-06
  0.794385 2.6804e-06
  0.813967 -4.12416e-07
  0.833549 -6.08227e-07
  0.853132 5.31428e-06
  0.872714 4.07649e-06
  0.892297 -3.93555e-07
  0.911879 -4.56276e-07
  0.931462 -2.93433e-07
  0.951044 -1.45245e-06
  0.970626 -1.79652e-06
  0.990209 5.01972e-06
   1.00979 1.20006e-05
   1.02937 8.42222e-06
   1.04896 9.95565e-06
   1.06854 8.11903e-06
   1.08812 4.93624e-06
    1.1077 2.56037e-06
   1.12729 -3.10568e-06
   1.14687 -3.47199e-06
   1.16645 4.13204e-07
   1.18603 5.90262e-06
   1.20562 1.05057e-06
    1.2252 -5.93863e-06
   1.24478 -6.87496e-06
   1.26436 -8.67875e-06
   1.28395 -9.96384e-06
   1.30353 -9.84949e-06
   1.32311 -6.72962e-06
   1.34269 1.99993e-06
   1.36228 8.3817e-06
   1.38186 8.71698e-06
   1.40144 6.31223e-06
   1.42102 1.19733e-05
   1.44061 1.39076e-05
   1.46019 1.38275e-05
   1.47977 9.80831e-06
   1.49935 9.23701e-06
   1.51894 1.13728e-05
   1.53852 3.31839e-07
    1.5581 1.62631e-05
   1.57768 2.1436e-05
   1.59727 1.88124e-05
   1.61685 1.70372e-05
   1.63643 1.00597e-05
   1.65601 -2.24567e-07
    1.6756 -7.45646e-06
   1.69518 -3.79125e-06
   1.71314 -1.23801e-06
   1.72902 -1.79691e-06
   1.74403 -6.40338e-07
   1.75821 -3.69828e-06
    1.7716 -1.01969e-06
   1.78426 1.77069e-06
   1.79621  2.894e-06
   1.80751 6.93893e-06
   1.81818 1.69679e-06
   1.82826 1.21223e-06
   1.83779 2.98752e-07
   1.84679 -5.27193e-06
   1.85529 -3.57835e-06
   1.86332 2.46375e-06
   1.87091 7.63458e-06
   1.87808 1.13745e-05
   1.88485 9.87373e-06
   1.89125 1.17913e-05
   1.89729 1.27606e-05
     1.903 7.20975e-06
    1.9084 4.55489e-06
    1.9135 7.13477e-06
   1.91831 4.89319e-06
   1.92286 -1.46541e-06
   1.92716 -3.76856e-06
   1.93122 -4.60879e-06
   1.93506 -6.45569e-06
   1.93868 -7.97484e-06
   1.94211 -8.31229e-06
   1.94534 -7.31632e-06
    1.9484 -9.26176e-06
   1.95129 -1.31537e-05
   1.95401 -1.62127e-05
   1.95659 -1.9944e-05
   1.95903 -2.34729e-05
   1.96133 -2.44393e-05
    1.9635 -2.43528e-05
   1.96555 -2.53317e-05
   1.96749 -2.71778e-05
   1.96933 -2.91714e-05
   1.97106 -3.05936e-05
   1.97269 -3.09261e-05
   1.97424 -3.07062e-05
    1.9757 -3.14669e-05
   1.97708 -3.423e-05
   1.97838 -3.86294e-05
   1.97961 -4.41272e-05
   1.98077 -5.08383e-05
   1.98187 -5.90181e-05
   1.98291 -6.83931e-05
   1.98389 -7.83463e-05
   1.98482 -8.82807e-05
   1.98569 -9.77622e-05
   1.98652 -0.000106436
    1.9873 -0.000113959
   1.98804 -0.000120058
   1.98874 -0.000124641
    1.9894 -0.000127801
   1.99002 -0.000129771
   1.99061 -0.000130851
   1.99116 -0.000131355
   1.99169 -0.000131535
   1.99218 -0.000131554
   1.99265 -0.000131483
    1.9931 -0.00013133
   1.99355 -0.000130922
   1.99399 -0.00012992
   1.99444 -0.000127902
   1.99488 -0.000124377
   1.99533 -0.000118856
   1.99577 -0.000110962
   1.99622 -0.00010054
   1.99666 -8.77404e-05
   1.99711 -7.30594e-05
   1.99755 -5.73125e-05
     1.998 -4.15558e-05
   1.99844 -2.69644e-05
   1.99889 -1.46947e-05
   1.99933 -5.75819e-06
   1.99978 -9.12942e-07
         2 -9.12942e-07
