         0 0.000188118
 0.0002225 0.000188118
 0.0006675 0.000178571
 0.0011125 0.00010212
 0.0015575 1.23369e-05
 0.0020025 -3.16472e-05
 0.0024475 -5.20692e-05
 0.0028925 -6.37393e-05
 0.0033375 -6.88137e-05
 0.0037825 -6.83591e-05
 0.0042275 -6.42265e-05
 0.0046725 -5.81859e-05
 0.0051175 -5.17538e-05
 0.0055625 -4.50756e-05
 0.0060075 -3.31877e-05
 0.0064525 -7.44966e-06
 0.0068975 1.70273e-05
 0.0073476 3.39622e-06
0.00781612 -3.78442e-05
0.00831203 -6.64685e-05
0.00883694 -7.95911e-05
0.00939255 -9.06536e-05
0.00998065 -0.000103348
 0.0106031 -0.000116386
  0.011262 -0.000128424
 0.0119594 -0.00013869
 0.0126977 -0.000146459
  0.013479 -0.000150952
 0.0143061 -0.000151447
 0.0151815 -0.000147339
 0.0161082 -0.000138238
  0.017089 -0.000124107
 0.0181271 -0.000105278
  0.019226 -8.26847e-05
 0.0203891 -5.75625e-05
 0.0216203 -3.1418e-05
 0.0229234 -6.47535e-06
 0.0243028 1.48762e-05
 0.0257628 3.15486e-05
 0.0273082 4.53595e-05
  0.028944 6.06967e-05
 0.0306754 7.57589e-05
 0.0325081 8.23506e-05
 0.0344479 8.06675e-05
 0.0365012 7.78705e-05
 0.0386746 7.49459e-05
  0.040975 6.82019e-05
   0.04341 6.17476e-05
 0.0459873 5.1652e-05
 0.0487154 1.62246e-05
  0.051603 -3.14272e-05
 0.0546595 -5.42767e-05
 0.0578947 -6.00049e-05
 0.0613191 -6.51321e-05
 0.0649437 -7.68395e-05
 0.0687803 -8.75806e-05
 0.0728413 -9.01139e-05
 0.0771397 -8.03302e-05
 0.0816895 -6.57352e-05
 0.0865054 -8.00486e-05
 0.0916029 -8.5224e-05
 0.0969985 -5.24188e-05
   0.10271 -4.02486e-05
  0.108755 8.96944e-06
  0.115153 -7.42292e-06
  0.121926 -4.27258e-05
  0.129095 4.65645e-06
  0.136683 8.20096e-06
  0.144715 -2.66941e-05
  0.153216 -1.50318e-05
  0.162214 -2.28898e-06
  0.171739 4.10666e-05
  0.181821 -2.68663e-05
  0.192492 6.84006e-05
  0.203788 -9.2542e-05
  0.215744 0.000116078
  0.228399 -0.000129986
  0.241794 0.000187882
  0.255972 -0.000240671
   0.27098 2.82669e-05
  0.286865 0.000770651
  0.304824 -0.00079974
  0.324407 0.000160765
  0.343989 0.000204055
  0.363571 -0.000117104
  0.383154 0.000138135
  0.402736 -0.000111577
  0.422319 0.000102058
  0.441901 -6.49639e-05
  0.461484 5.59204e-05
  0.481066 -5.85901e-05
  0.500648 2.6918e-05
  0.520231 2.61806e-05
  0.539813 -2.44351e-05
  0.559396 1.81349e-05
  0.578978 -1.09617e-06
   0.59856 8.29549e-06
  0.618143 5.7544e-06
  0.637725 1.77806e-05
  0.657308 -1.08928e-05
   0.67689 -7.66535e-06
  0.696473 -5.76382e-06
  0.716055 3.46542e-06
  0.735637 6.6481e-06
   0.75522 -5.01212e-06
  0.774802 9.25667e-06
  0.794385 2.08028e-05
  0.813967 1.83751e-05
  0.833549 -3.25365e-05
  0.853132 3.45181e-06
  0.872714 2.63118e-05
  0.892297 -1.91481e-05
  0.911879 7.45492e-06
  0.931462 6.50073e-06
  0.951044 1.23356e-05
  0.970626 1.36153e-05
  0.990209 -1.09041e-05
   1.00979 -4.95629e-06
   1.02937 9.01833e-06
   1.04896 1.1959e-05
   1.06854 1.64117e-05
   1.08812 -2.32656e-06
    1.1077 -3.89144e-06
   1.12729 1.47944e-05
   1.14687 7.76655e-06
   1.16645 4.81396e-06
   1.18603 2.05225e-05
   1.20562 -3.82252e-05
    1.2252 -1.46398e-05
   1.24478 3.01207e-05
   1.26436 8.58406e-06
   1.28395 -5.05513e-06
   1.30353 9.23678e-06
   1.32311 1.07379e-05
   1.34269 -2.67386e-05
   1.36228 5.77692e-05
   1.38186 -1.44537e-05
   1.40144 -3.52929e-05
   1.42102 2.63869e-05
   1.44061 -3.29366e-05
   1.46019 2.9148e-05
   1.47977 -3.5544e-06
   1.49935 1.96729e-05
   1.51894 -1.86645e-05
   1.53852 4.77506e-05
    1.5581 -4.97106e-05
   1.57768 9.0726e-05
   1.59727 -0.000115279
   1.61685 0.000141615
   1.63643 -0.000165359
   1.65601 0.00025981
    1.6756 0.000189872
   1.69518 -0.00086243
   1.71314 0.000783165
   1.72902 3.90523e-05
   1.74403 -0.000264207
   1.75821 0.000214054
    1.7716 -0.000104599
   1.78426 6.05245e-05
   1.79621 -4.58981e-05
   1.80751 5.62309e-05
   1.81818 -2.23004e-05
   1.82826  3.821e-05
   1.83779 -3.85275e-05
   1.84679 1.79564e-06
   1.85529 7.46684e-06
   1.86332 -6.16664e-06
   1.87091 2.7291e-06
   1.87808 -4.22414e-07
   1.88485 -5.05014e-05
   1.89125 -5.55964e-05
   1.89729 -3.06281e-05
     1.903 -2.41858e-05
    1.9084 -6.49286e-05
    1.9135 -9.78264e-05
   1.91831 -7.29032e-05
   1.92286 -6.41052e-05
   1.92716 -8.18701e-05
   1.93122 -9.97716e-05
   1.93506 -9.23346e-05
   1.93868 -6.1746e-05
   1.94211 -3.31071e-05
   1.94534 -1.67775e-05
    1.9484 -6.62521e-06
   1.95129 2.0522e-06
   1.95401 1.93276e-05
   1.95659 4.6988e-05
   1.95903 6.86987e-05
   1.96133 7.98857e-05
    1.9635 8.82519e-05
   1.96555 9.1977e-05
   1.96749 8.47987e-05
   1.96933 6.98876e-05
   1.97106 5.43022e-05
   1.97269 3.97327e-05
   1.97424 2.34244e-05
    1.9757 4.53966e-06
   1.97708 -1.61192e-05
   1.97838 -3.84002e-05
   1.97961 -6.16277e-05
   1.98077 -8.4423e-05
   1.98187 -0.000105335
   1.98291 -0.000123085
   1.98389 -0.000136762
   1.98482 -0.000145723
   1.98569 -0.000149875
   1.98652 -0.000149469
    1.9873 -0.000144982
   1.98804 -0.000137169
   1.98874 -0.000126841
    1.9894 -0.000114763
   1.99002 -0.000101762
   1.99061 -8.91621e-05
   1.99116 -7.82079e-05
   1.99169 -6.52335e-05
   1.99218 -3.69314e-05
   1.99265 3.75104e-06
    1.9931 1.70048e-05
   1.99355 -7.37116e-06
   1.99399 -3.28644e-05
   1.99444 -4.46137e-05
   1.99488 -5.12036e-05
   1.99533 -5.75389e-05
   1.99577 -6.34693e-05
   1.99622 -6.74954e-05
   1.99666 -6.78746e-05
   1.99711 -6.27887e-05
   1.99755 -5.11933e-05
     1.998 -3.09655e-05
   1.99844 1.25097e-05
   1.99889 0.000101143
   1.99933 0.000176477
   1.99978 0.000185699
         2 0.000185699
