         0 2.19351e-21
 0.0002225 -5.64515e-21
 0.0006675 -5.25837e-20
 0.0011125 -7.39328e-20
 0.0015575 -3.45159e-19
 0.0020025 -1.26898e-19
 0.0024475 -2.90998e-19
 0.0028925 -7.04792e-19
 0.0033375 -1.3286e-18
 0.0037825 -1.68982e-18
 0.0042275 -2.34112e-18
 0.0046725 -2.8555e-18
 0.0051175 -3.48339e-18
 0.0055625 -3.77675e-19
 0.0060075 -1.95228e-18
 0.0064525 1.72301e-19
 0.0068975 -9.83068e-19
 0.0073476 -4.4751e-18
0.00781612 -4.59223e-18
0.00831203 -2.97885e-18
0.00883694 -3.914e-18
0.00939255 -9.34475e-18
0.00998065 -8.50211e-18
 0.0106031 -4.14309e-18
  0.011262 -4.26256e-18
 0.0119594 -4.24452e-18
 0.0126977 2.31742e-18
  0.013479 2.94671e-18
 0.0143061 -4.78218e-18
 0.0151815 -8.88283e-18
 0.0161082 -1.37827e-18
  0.017089 8.30922e-18
 0.0181271 4.56499e-18
  0.019226 5.57668e-18
 0.0203891 -1.04385e-17
 0.0216203 -1.11829e-17
 0.0229234 -3.39409e-18
 0.0243028 -6.70063e-18
 0.0257628 -9.61076e-18
 0.0273082 4.01211e-18
  0.028944 -3.00655e-18
 0.0306754 -7.45782e-18
 0.0325081 -8.88489e-18
 0.0344479 -9.81977e-18
 0.0365012 -4.84786e-19
 0.0386746 1.19266e-17
  0.040975 6.93813e-18
   0.04341 8.3825e-18
 0.0459873 1.34052e-17
 0.0487154 -2.62358e-18
  0.051603 -2.85817e-18
 0.0546595 5.10338e-18
 0.0578947 -2.64087e-18
 0.0613191 4.39881e-18
 0.0649437 6.94972e-18
 0.0687803 8.46066e-19
 0.0728413 -1.40151e-18
 0.0771397 -9.05344e-19
 0.0816895 -1.29122e-18
 0.0865054 -2.72193e-18
 0.0916029 -5.86821e-18
 0.0969985 2.53404e-18
   0.10271 1.43573e-18
  0.108755 -6.57399e-18
  0.115153 -3.24928e-18
  0.121926 -5.16774e-19
  0.129095 -3.5677e-18
  0.136683 -2.53714e-18
  0.144715 -7.9165e-18
  0.153216 -4.44685e-18
  0.162214 -3.95623e-18
  0.171739 -1.60151e-18
  0.181821 -3.44857e-18
  0.192492 -3.42891e-18
  0.203788 -2.56354e-18
  0.215744 -1.52722e-18
  0.228399 -3.12295e-18
  0.241794 -1.4602e-20
  0.255972 -3.54153e-18
   0.27098 2.04082e-19
  0.286865 -7.31766e-18
  0.304824 -4.05459e-18
  0.324407 -3.18167e-18
  0.343989 -2.61908e-18
  0.363571 -6.06217e-18
  0.383154 -1.33844e-17
  0.402736 -5.18244e-18
  0.422319 -4.15743e-18
  0.441901 -2.22478e-20
  0.461484 -6.37131e-18
  0.481066 -1.45831e-18
  0.500648 2.98671e-18
  0.520231 -3.48156e-18
  0.539813 3.85976e-21
  0.559396 -2.84822e-18
  0.578978 -4.70284e-18
   0.59856 -1.52212e-18
  0.618143 -4.72013e-18
  0.637725 2.7877e-18
  0.657308 -2.03518e-18
   0.67689 -9.65391e-19
  0.696473 1.71006e-18
  0.716055 -4.65565e-19
  0.735637 -1.7957e-18
   0.75522 -3.56918e-18
  0.774802 -3.31021e-18
  0.794385 -3.05879e-18
  0.813967 -1.14942e-18
  0.833549 -1.04561e-18
  0.853132 2.22634e-19
  0.872714 -3.85959e-19
  0.892297 -2.22495e-18
  0.911879 -4.9074e-19
  0.931462 7.45033e-19
  0.951044 -1.04885e-18
  0.970626 -1.46266e-18
  0.990209 -5.28246e-19
   1.00979 -4.14299e-18
   1.02937 -6.71878e-18
   1.04896 -3.93602e-18
   1.06854 -3.04604e-18
   1.08812 -3.20277e-18
    1.1077 -1.40687e-18
   1.12729 -2.43894e-18
   1.14687 -2.09849e-18
   1.16645 -1.76142e-18
   1.18603 -3.07475e-18
   1.20562 -4.2754e-19
    1.2252 -1.62544e-19
   1.24478 -1.1453e-18
   1.26436 -6.11498e-19
   1.28395 -3.5241e-18
   1.30353 5.77047e-19
   1.32311 -1.43672e-18
   1.34269 -1.24047e-18
   1.36228 3.76794e-18
   1.38186 -1.17405e-18
   1.40144 1.2235e-18
   1.42102 6.67878e-18
   1.44061 -5.36767e-18
   1.46019 1.91381e-18
   1.47977 2.10445e-18
   1.49935 5.65163e-18
   1.51894 -4.72557e-18
   1.53852 -6.21884e-18
    1.5581 -6.06067e-18
   1.57768 4.10158e-19
   1.59727 1.90319e-18
   1.61685 6.22372e-18
   1.63643 6.03302e-19
   1.65601 4.53075e-18
    1.6756 -2.72705e-18
   1.69518 -6.30086e-19
   1.71314 -7.32956e-18
   1.72902 -3.78662e-18
   1.74403 -6.09773e-18
   1.75821 -1.72216e-18
    1.7716 1.3543e-18
   1.78426 2.92826e-19
   1.79621 1.98196e-18
   1.80751 8.79991e-19
   1.81818 7.41709e-18
   1.82826 8.02443e-18
   1.83779 8.21596e-18
   1.84679 1.45755e-18
   1.85529 1.22688e-17
   1.86332 1.5243e-18
   1.87091 2.51163e-18
   1.87808 -3.61265e-18
   1.88485 -4.20842e-18
   1.89125 -9.46503e-18
   1.89729 -2.02438e-17
     1.903 -7.92554e-18
    1.9084 6.26516e-18
    1.9135 -1.15137e-17
   1.91831 -5.07866e-18
   1.92286 -1.11233e-17
   1.92716 1.20453e-17
   1.93122 -1.07672e-18
   1.93506 4.2865e-19
   1.93868 1.24398e-17
   1.94211 -5.47283e-18
   1.94534 1.27184e-17
    1.9484 1.27864e-17
   1.95129 -1.16144e-17
   1.95401 4.72216e-18
   1.95659 -2.99084e-18
   1.95903 -5.29048e-18
   1.96133 1.7738e-17
    1.9635 -2.80513e-17
   1.96555 -6.25645e-18
   1.96749 1.57397e-17
   1.96933 -3.05469e-17
   1.97106 1.43476e-17
   1.97269 -7.57835e-18
   1.97424 -3.28773e-17
    1.9757 4.5013e-18
   1.97708 -4.42285e-19
   1.97838 6.31452e-17
   1.97961 -7.32212e-17
   1.98077 5.02309e-17
   1.98187 -3.31093e-18
   1.98291 2.14766e-17
   1.98389 -2.24364e-17
   1.98482 -1.13069e-17
   1.98569 2.99181e-18
   1.98652 3.8529e-17
    1.9873 -1.09673e-17
   1.98804 -2.1912e-17
   1.98874 2.72688e-17
    1.9894 -1.13429e-17
   1.99002 -2.77153e-18
   1.99061 3.29865e-18
   1.99116 -5.67344e-17
   1.99169 -9.28364e-18
   1.99218 4.76402e-17
   1.99265 4.48407e-17
    1.9931 -5.90281e-17
   1.99355 2.88772e-17
   1.99399 -2.28397e-18
   1.99444 -2.14473e-17
   1.99488 -9.06585e-18
   1.99533 1.15458e-17
   1.99577 5.68983e-18
   1.99622 -9.13165e-18
   1.99666 -3.34764e-18
   1.99711 6.65345e-18
   1.99755 -5.63529e-18
     1.998 3.37263e-19
   1.99844 1.93004e-18
   1.99889 3.00336e-19
   1.99933 -3.12731e-19
   1.99978 4.67172e-20
         2 5.0576e-20
