         0 -1.07081e-22
 0.0002225 1.06095e-22
 0.0006675 3.46613e-21
 0.0011125 1.31592e-20
 0.0015575 -3.67838e-20
 0.0020025 -1.12539e-20
 0.0024475 1.08011e-20
 0.0028925 9.48216e-21
 0.0033375 -2.39161e-20
 0.0037825 3.47563e-20
 0.0042275 -9.29964e-20
 0.0046725 8.53945e-20
 0.0051175 1.8723e-19
 0.0055625 1.34429e-19
 0.0060075 3.29348e-20
 0.0064525 -2.58857e-19
 0.0068975 -2.18949e-19
 0.0073476 -6.26213e-20
0.00781612 -1.19677e-19
0.00831203 -8.31843e-20
0.00883694 -2.00766e-19
0.00939255 -1.05764e-19
0.00998065 -1.47744e-19
 0.0106031 3.11686e-20
  0.011262 -1.23339e-19
 0.0119594 4.8852e-20
 0.0126977 2.60809e-19
  0.013479 5.22557e-19
 0.0143061 4.58015e-19
 0.0151815 6.21985e-20
 0.0161082 -2.89282e-19
  0.017089 8.8189e-20
 0.0181271 3.13378e-19
  0.019226 -2.76372e-19
 0.0203891 2.26221e-19
 0.0216203 -1.35911e-19
 0.0229234 -1.3716e-19
 0.0243028 4.00027e-19
 0.0257628 -2.67069e-19
 0.0273082 3.80225e-19
  0.028944 3.04808e-19
 0.0306754 -8.09769e-20
 0.0325081 -4.91725e-19
 0.0344479 3.46476e-19
 0.0365012 6.1646e-19
 0.0386746 -1.76829e-19
  0.040975 1.01902e-19
   0.04341 2.61375e-19
 0.0459873 3.16466e-19
 0.0487154 -8.70918e-20
  0.051603 -3.05129e-19
 0.0546595 -2.89999e-19
 0.0578947 -5.28235e-19
 0.0613191 -4.29358e-19
 0.0649437 -3.63506e-19
 0.0687803 -1.39684e-19
 0.0728413 -3.03288e-19
 0.0771397 -6.00572e-20
 0.0816895 3.11074e-19
 0.0865054 2.32234e-19
 0.0916029 -9.83762e-20
 0.0969985 -2.83519e-19
   0.10271 -7.07507e-20
  0.108755 1.0018e-19
  0.115153 -1.55377e-19
  0.121926 -1.92629e-20
  0.129095 3.17784e-19
  0.136683 1.35038e-19
  0.144715 3.18147e-19
  0.153216 -4.69007e-20
  0.162214 3.53139e-19
  0.171739 1.35495e-19
  0.181821 1.36277e-19
  0.192492 5.95585e-20
  0.203788 7.01956e-20
  0.215744 -5.33242e-20
  0.228399 -9.27448e-20
  0.241794 2.86555e-20
  0.255972 -2.64076e-20
   0.27098 -2.47822e-20
  0.286865 -8.72523e-20
  0.304824 1.69478e-19
  0.324407 1.16027e-19
  0.343989 -1.22927e-20
  0.363571 5.49295e-20
  0.383154 1.96338e-19
  0.402736 -4.60531e-20
  0.422319 -2.31911e-20
  0.441901 -4.56406e-20
  0.461484 1.14838e-19
  0.481066 4.72124e-20
  0.500648 -1.02391e-19
  0.520231 -1.47692e-19
  0.539813 -5.13565e-20
  0.559396 -4.47407e-20
  0.578978 -6.28761e-20
   0.59856 3.55307e-20
  0.618143 -6.83188e-20
  0.637725 4.69341e-20
  0.657308 -6.7368e-20
   0.67689 2.14073e-20
  0.696473 1.39728e-19
  0.716055 4.91599e-20
  0.735637 1.32492e-20
   0.75522 -7.21394e-20
  0.774802 -5.54732e-20
  0.794385 1.49836e-19
  0.813967 -9.9073e-21
  0.833549 5.14463e-20
  0.853132 7.49363e-20
  0.872714 -2.27555e-19
  0.892297 5.8014e-21
  0.911879 6.65397e-20
  0.931462 -3.3623e-20
  0.951044 1.18588e-19
  0.970626 -4.05904e-20
  0.990209 -8.62673e-20
   1.00979 2.20341e-20
   1.02937 -5.95352e-20
   1.04896 -5.47622e-20
   1.06854 -6.9316e-20
   1.08812 -6.57528e-20
    1.1077 -1.72114e-20
   1.12729 -2.10734e-20
   1.14687 1.30278e-20
   1.16645 -9.88223e-21
   1.18603 9.64235e-21
   1.20562 1.98704e-20
    1.2252 -3.0016e-20
   1.24478 -4.15435e-20
   1.26436 1.3964e-20
   1.28395 -8.28287e-20
   1.30353 -2.14616e-20
   1.32311 -1.21479e-20
   1.34269 1.63655e-19
   1.36228 1.00768e-19
   1.38186 3.0542e-21
   1.40144 -9.17197e-20
   1.42102 5.40995e-20
   1.44061 2.26772e-20
   1.46019 -3.39965e-20
   1.47977 -8.20082e-20
   1.49935 3.13943e-20
   1.51894 -4.91512e-20
   1.53852 -2.39582e-20
    1.5581 -4.96489e-20
   1.57768 -1.34448e-19
   1.59727 -1.14205e-19
   1.61685 2.97562e-20
   1.63643 -4.96337e-20
   1.65601 1.50301e-19
    1.6756 1.19371e-21
   1.69518 1.46097e-19
   1.71314 1.92103e-19
   1.72902 7.57933e-20
   1.74403 3.25787e-19
   1.75821 3.42085e-19
    1.7716 1.24376e-19
   1.78426 -2.10293e-19
   1.79621 -2.33217e-19
   1.80751 -2.21156e-20
   1.81818 -1.04402e-19
   1.82826 2.24987e-19
   1.83779 3.28604e-19
   1.84679 -3.8242e-19
   1.85529 1.67779e-19
   1.86332 2.54255e-19
   1.87091 -6.88338e-20
   1.87808 1.13104e-20
   1.88485 -3.69397e-19
   1.89125 -5.60489e-20
   1.89729 -5.3011e-20
     1.903 2.58713e-19
    1.9084 -3.95439e-19
    1.9135 2.73333e-19
   1.91831 2.33706e-19
   1.92286 2.21993e-19
   1.92716 -2.80125e-20
   1.93122 -7.42418e-20
   1.93506 -1.42334e-20
   1.93868 1.25134e-19
   1.94211 3.39997e-19
   1.94534 2.8001e-19
    1.9484 -2.76478e-19
   1.95129 1.05239e-19
   1.95401 -3.7173e-20
   1.95659 -7.65645e-19
   1.95903 1.02747e-19
   1.96133  1.073e-18
    1.9635 -3.85863e-19
   1.96555 -5.94068e-19
   1.96749 -2.20853e-19
   1.96933 6.77661e-19
   1.97106 -3.52011e-19
   1.97269 -4.97279e-19
   1.97424 1.4252e-18
    1.9757 -1.36135e-18
   1.97708 2.22393e-19
   1.97838 -4.46746e-19
   1.97961 9.88093e-19
   1.98077 -1.02916e-18
   1.98187 7.63441e-20
   1.98291 -5.80558e-20
   1.98389 1.05463e-18
   1.98482 -4.75191e-19
   1.98569 3.94073e-19
   1.98652 5.60855e-19
    1.9873 1.17503e-18
   1.98804 -2.56697e-18
   1.98874 -7.11421e-20
    1.9894 1.30878e-18
   1.99002 -9.02581e-19
   1.99061 1.66107e-19
   1.99116 -8.06297e-19
   1.99169 -9.04116e-21
   1.99218 -1.35921e-20
   1.99265 7.11567e-20
    1.9931 -7.55084e-19
   1.99355 5.57082e-19
   1.99399 -5.46376e-19
   1.99444 -3.17471e-19
   1.99488 -1.92997e-19
   1.99533 1.78277e-19
   1.99577 -6.21869e-19
   1.99622 2.38796e-20
   1.99666 1.94746e-19
   1.99711 2.6262e-19
   1.99755 -5.26673e-19
     1.998 2.78059e-19
   1.99844 7.6484e-20
   1.99889 -6.15111e-20
   1.99933 -5.90721e-20
   1.99978 9.90695e-21
         2 9.97088e-21
