         0 -3.80862e-21
 0.0002225 -4.07481e-20
 0.0006675 -1.31328e-19
 0.0011125 -2.18964e-19
 0.0015575 -4.89357e-20
 0.0020025 -5.19845e-19
 0.0024475 -7.44284e-19
 0.0028925 -3.03357e-19
 0.0033375 -5.39174e-21
 0.0037825 -5.97961e-19
 0.0042275 -2.38588e-19
 0.0046725 -6.04627e-19
 0.0051175 -3.57047e-19
 0.0055625 3.63208e-21
 0.0060075 7.62697e-19
 0.0064525 2.98169e-19
 0.0068975 1.79921e-19
 0.0073476 -3.78491e-19
0.00781612 3.07805e-19
0.00831203 1.00805e-19
0.00883694 -6.47585e-19
0.00939255 -5.46932e-19
0.00998065 -3.79731e-20
 0.0106031 -1.34448e-18
  0.011262 -9.49414e-20
 0.0119594 8.30924e-19
 0.0126977 -3.30109e-19
  0.013479 -2.81997e-19
 0.0143061 -3.8059e-19
 0.0151815 -3.38939e-19
 0.0161082 7.55906e-19
  0.017089 -8.79882e-19
 0.0181271 -4.8754e-19
  0.019226 8.84813e-19
 0.0203891 -3.61011e-19
 0.0216203 4.63779e-19
 0.0229234 -4.41103e-19
 0.0243028 3.60942e-19
 0.0257628 2.65296e-19
 0.0273082 -1.40361e-19
  0.028944 4.16854e-20
 0.0306754 1.28513e-19
 0.0325081 -5.09124e-19
 0.0344479 -7.26316e-19
 0.0365012 6.98345e-19
 0.0386746 3.64202e-19
  0.040975 -4.67275e-20
   0.04341 3.17126e-19
 0.0459873 6.08913e-19
 0.0487154 -9.17978e-20
  0.051603 4.32608e-20
 0.0546595 -1.76395e-19
 0.0578947 6.02821e-19
 0.0613191 -8.02451e-20
 0.0649437 7.90173e-19
 0.0687803 -2.65632e-19
 0.0728413 -2.90067e-20
 0.0771397 -2.88148e-19
 0.0816895 -2.3731e-19
 0.0865054 -7.00956e-19
 0.0916029 2.24482e-19
 0.0969985 -1.64547e-19
   0.10271 -1.53491e-19
  0.108755 8.16491e-19
  0.115153 -1.22903e-19
  0.121926 -2.96012e-19
  0.129095 -3.56709e-19
  0.136683 2.87349e-19
  0.144715 7.61435e-21
  0.153216 -8.56514e-20
  0.162214 2.33964e-19
  0.171739 7.39751e-21
  0.181821 9.16841e-20
  0.192492 -5.72036e-20
  0.203788 1.11757e-19
  0.215744 -3.20241e-20
  0.228399 3.35722e-19
  0.241794 1.54261e-19
  0.255972 5.43734e-19
   0.27098 -3.30042e-20
  0.286865 -2.32327e-19
  0.304824 -2.53378e-21
  0.324407 1.37181e-19
  0.343989 -5.97615e-20
  0.363571 2.47734e-19
  0.383154 -1.24329e-19
  0.402736 1.2807e-19
  0.422319 1.34611e-19
  0.441901 -3.55526e-19
  0.461484 2.77009e-19
  0.481066 1.51589e-19
  0.500648 -3.00797e-19
  0.520231 -1.70793e-19
  0.539813 1.35768e-19
  0.559396 -6.70105e-20
  0.578978 6.17144e-19
   0.59856 1.98492e-19
  0.618143 1.26638e-19
  0.637725 9.81431e-20
  0.657308 -1.66597e-19
   0.67689 1.79925e-19
  0.696473 -2.99175e-19
  0.716055 2.36984e-19
  0.735637 -1.18292e-19
   0.75522 4.80508e-20
  0.774802 2.92757e-19
  0.794385 -6.26609e-20
  0.813967 -1.19885e-19
  0.833549 4.56579e-20
  0.853132 5.99637e-20
  0.872714 -1.10589e-20
  0.892297 1.04241e-20
  0.911879 2.32897e-20
  0.931462 1.56785e-19
  0.951044 1.02303e-19
  0.970626 -2.08889e-19
  0.990209 -1.45271e-19
   1.00979 8.06375e-20
   1.02937 1.46926e-19
   1.04896 -1.92954e-19
   1.06854 -1.49295e-19
   1.08812 -5.0473e-20
    1.1077 -6.67728e-20
   1.12729 -6.35142e-20
   1.14687 -1.27632e-19
   1.16645 1.54857e-20
   1.18603 5.75619e-20
   1.20562 1.18317e-19
    1.2252 2.40738e-19
   1.24478 -4.7626e-20
   1.26436 5.35106e-20
   1.28395 -4.63537e-20
   1.30353 -3.1465e-20
   1.32311 1.06623e-20
   1.34269 8.59599e-20
   1.36228 -8.85473e-20
   1.38186 4.99451e-20
   1.40144 -9.95571e-20
   1.42102 -4.22153e-20
   1.44061 8.36071e-20
   1.46019 -2.21348e-19
   1.47977 4.55555e-19
   1.49935 2.35382e-19
   1.51894  1.235e-19
   1.53852 3.14671e-19
    1.5581 3.21367e-19
   1.57768 -2.18127e-19
   1.59727 -4.81866e-20
   1.61685 -1.77387e-19
   1.63643 -1.42873e-19
   1.65601 -3.21317e-19
    1.6756 1.28868e-19
   1.69518 2.50563e-19
   1.71314 1.74311e-19
   1.72902 -9.4796e-19
   1.74403 -3.18007e-19
   1.75821 -1.42366e-19
    1.7716 -2.92897e-20
   1.78426 -3.03696e-20
   1.79621 3.65727e-19
   1.80751 1.15719e-19
   1.81818 4.90643e-19
   1.82826 -5.04084e-19
   1.83779 2.9878e-19
   1.84679 1.07782e-19
   1.85529 1.68966e-19
   1.86332 -1.23242e-19
   1.87091 -4.15229e-19
   1.87808 -6.76163e-20
   1.88485 7.55917e-20
   1.89125 -5.8082e-19
   1.89729 2.31239e-20
     1.903 -1.25145e-19
    1.9084 -3.91776e-21
    1.9135 -2.29036e-19
   1.91831 -2.33209e-19
   1.92286 -6.65186e-19
   1.92716 -5.64204e-19
   1.93122 5.1954e-19
   1.93506 -4.26571e-19
   1.93868 1.94744e-19
   1.94211 -2.45253e-19
   1.94534 -6.39549e-19
    1.9484 2.12495e-19
   1.95129 -2.53174e-19
   1.95401 -5.24398e-19
   1.95659 -8.91201e-19
   1.95903 7.20431e-20
   1.96133 -1.04294e-18
    1.9635 -8.05291e-19
   1.96555 -1.06182e-18
   1.96749 1.65103e-18
   1.96933 -9.74958e-20
   1.97106 -8.00965e-20
   1.97269 -1.20244e-18
   1.97424 -3.82049e-19
    1.9757 -5.24936e-19
   1.97708 -6.15335e-19
   1.97838 2.97017e-20
   1.97961 1.58569e-19
   1.98077 2.21854e-18
   1.98187 1.43449e-18
   1.98291 -2.77846e-19
   1.98389 -1.56366e-18
   1.98482 3.33941e-18
   1.98569 -1.54966e-18
   1.98652 3.96558e-18
    1.9873 -1.28895e-18
   1.98804 2.0037e-18
   1.98874 2.4556e-18
    1.9894 -1.50163e-18
   1.99002 -2.47115e-18
   1.99061 5.70737e-19
   1.99116 4.81186e-18
   1.99169 -2.91087e-20
   1.99218 2.2374e-18
   1.99265 -5.11833e-18
    1.9931 5.5649e-18
   1.99355 -3.88064e-18
   1.99399 3.42043e-18
   1.99444 -5.97759e-18
   1.99488 5.51565e-18
   1.99533 2.75329e-19
   1.99577 -8.9036e-19
   1.99622 1.19067e-18
   1.99666 1.09791e-18
   1.99711 -4.73478e-18
   1.99755 3.17821e-18
     1.998 -5.68339e-19
   1.99844 2.11417e-19
   1.99889 -1.70684e-18
   1.99933 4.17516e-19
   1.99978 -3.70751e-19
         2 -3.29378e-19
