         0 2.04232e-19
 0.0002225 -8.65989e-19
 0.0006675 -2.33904e-18
 0.0011125 -1.95581e-18
 0.0015575 -2.77931e-18
 0.0020025 -4.93487e-18
 0.0024475 -2.08477e-18
 0.0028925 -1.18386e-17
 0.0033375 -1.39081e-17
 0.0037825 -1.07582e-17
 0.0042275 -1.57378e-17
 0.0046725 -3.5125e-18
 0.0051175 -1.13019e-17
 0.0055625 -5.01425e-18
 0.0060075 -5.66294e-18
 0.0064525 -1.69327e-17
 0.0068975 -1.6924e-17
 0.0073476 -8.8092e-18
0.00781612 -8.12558e-18
0.00831203 -1.02917e-17
0.00883694 -1.32828e-17
0.00939255 -2.95377e-17
0.00998065 -9.98514e-18
 0.0106031 -8.97431e-18
  0.011262 -2.47177e-17
 0.0119594 -1.03278e-17
 0.0126977 -2.15879e-18
  0.013479 -2.26628e-18
 0.0143061 -9.94739e-18
 0.0151815 -9.33866e-18
 0.0161082 -9.42618e-18
  0.017089 5.27633e-19
 0.0181271 4.36547e-18
  0.019226 -3.44528e-18
 0.0203891 -6.70831e-18
 0.0216203 2.85034e-18
 0.0229234 7.08105e-18
 0.0243028 -1.57471e-18
 0.0257628 -9.29378e-19
 0.0273082 -1.38604e-19
  0.028944 3.2742e-18
 0.0306754 1.13515e-18
 0.0325081 1.01477e-17
 0.0344479 1.15179e-17
 0.0365012 8.83483e-18
 0.0386746 1.05991e-17
  0.040975 1.51218e-17
   0.04341 1.34879e-17
 0.0459873 7.92464e-18
 0.0487154 1.49398e-17
  0.051603 1.03108e-17
 0.0546595 1.02438e-17
 0.0578947 4.50721e-18
 0.0613191 1.00857e-17
 0.0649437 -6.94228e-18
 0.0687803 4.55783e-18
 0.0728413 -1.30127e-17
 0.0771397 -1.08784e-17
 0.0816895 8.79888e-18
 0.0865054 -7.45085e-18
 0.0916029 1.54637e-18
 0.0969985 2.22568e-18
   0.10271 3.60181e-18
  0.108755 1.62563e-17
  0.115153 -5.62383e-18
  0.121926 -2.7009e-18
  0.129095 7.59739e-19
  0.136683 -1.41626e-18
  0.144715 -6.99989e-18
  0.153216 -3.10166e-18
  0.162214 -3.89616e-18
  0.171739 8.64028e-18
  0.181821 -3.66757e-18
  0.192492 -1.95993e-18
  0.203788 1.40984e-18
  0.215744 -7.42774e-19
  0.228399 1.47399e-18
  0.241794 4.1562e-18
  0.255972 3.95553e-18
   0.27098 1.86849e-18
  0.286865 1.79248e-18
  0.304824 1.05417e-18
  0.324407 -2.20275e-19
  0.343989 2.97047e-18
  0.363571 6.44545e-18
  0.383154 1.13225e-18
  0.402736 -4.36387e-19
  0.422319 -3.51859e-18
  0.441901 4.75904e-19
  0.461484 -2.59956e-18
  0.481066 -1.03723e-18
  0.500648 -4.92651e-18
  0.520231 -2.69247e-18
  0.539813 3.94762e-19
  0.559396 -2.09638e-18
  0.578978 -2.05264e-18
   0.59856 2.78133e-18
  0.618143 4.13054e-18
  0.637725 2.72451e-19
  0.657308 6.08732e-19
   0.67689 1.24064e-18
  0.696473 -2.35996e-18
  0.716055 2.23543e-18
  0.735637 -5.55261e-19
   0.75522 1.06274e-18
  0.774802 8.46844e-19
  0.794385 6.84253e-19
  0.813967 1.25635e-19
  0.833549 -1.72865e-19
  0.853132 4.53014e-19
  0.872714 -4.98381e-20
  0.892297 2.51664e-18
  0.911879 1.72894e-18
  0.931462 1.70901e-18
  0.951044 1.48086e-18
  0.970626 9.65738e-19
  0.990209 7.79212e-19
   1.00979 -1.46961e-18
   1.02937 -1.34571e-18
   1.04896 -2.80459e-19
   1.06854 1.25749e-18
   1.08812 -9.40337e-19
    1.1077 -3.55523e-18
   1.12729 -3.0196e-18
   1.14687 2.11316e-18
   1.16645 6.64382e-19
   1.18603 1.28438e-18
   1.20562 -7.62107e-19
    1.2252 -9.07625e-19
   1.24478 -3.88579e-18
   1.26436 7.02471e-19
   1.28395 -1.47169e-18
   1.30353 1.34864e-20
   1.32311 -1.87619e-18
   1.34269 -2.75072e-18
   1.36228 -2.59173e-18
   1.38186 -5.09856e-18
   1.40144 -1.66924e-18
   1.42102 -1.81995e-18
   1.44061 -5.23769e-18
   1.46019 7.45376e-19
   1.47977 -4.67094e-18
   1.49935 -2.62461e-18
   1.51894 -2.72956e-18
   1.53852 -9.90995e-19
    1.5581 9.89148e-19
   1.57768 -2.15412e-18
   1.59727 -6.40295e-19
   1.61685 -4.47649e-18
   1.63643 -1.066e-18
   1.65601 -7.72777e-18
    1.6756 -6.04265e-19
   1.69518 -4.62642e-19
   1.71314 -4.10642e-18
   1.72902 -3.47682e-18
   1.74403 -5.82851e-18
   1.75821 -1.00147e-18
    1.7716 1.68732e-18
   1.78426 6.42502e-18
   1.79621 4.62035e-18
   1.80751 -2.02864e-18
   1.81818 2.10951e-18
   1.82826 1.14286e-18
   1.83779 9.48685e-18
   1.84679 4.1642e-18
   1.85529 1.01546e-18
   1.86332 2.82198e-18
   1.87091 1.39588e-18
   1.87808 2.60221e-18
   1.88485 -2.95577e-18
   1.89125 -4.44054e-18
   1.89729 2.40886e-18
     1.903 -4.31065e-18
    1.9084 1.87204e-18
    1.9135 -5.2703e-18
   1.91831 1.04666e-18
   1.92286 3.15165e-18
   1.92716 -1.46168e-19
   1.93122 8.46541e-18
   1.93506 4.56388e-18
   1.93868 8.23662e-18
   1.94211 2.68438e-18
   1.94534 1.95347e-18
    1.9484 1.78991e-17
   1.95129 -2.34385e-17
   1.95401 1.50883e-17
   1.95659 1.60887e-17
   1.95903 -4.48683e-17
   1.96133 2.34277e-17
    1.9635 2.19656e-17
   1.96555 2.28591e-17
   1.96749 3.22068e-17
   1.96933 -1.02512e-17
   1.97106 5.24775e-17
   1.97269 2.67407e-18
   1.97424 3.23554e-17
    1.9757 -3.58565e-17
   1.97708 6.11219e-17
   1.97838 1.89911e-17
   1.97961 -3.00202e-17
   1.98077 9.66219e-17
   1.98187 -1.61413e-18
   1.98291 -1.8425e-17
   1.98389 1.90166e-17
   1.98482 8.34868e-17
   1.98569 1.90475e-17
   1.98652 -2.63128e-17
    1.9873 -4.88014e-17
   1.98804 7.02802e-17
   1.98874 -6.17006e-18
    1.9894 -3.35487e-17
   1.99002 -1.14352e-17
   1.99061 1.24381e-16
   1.99116 -7.49961e-17
   1.99169 -1.74701e-17
   1.99218 1.70773e-16
   1.99265 -1.97655e-16
    1.9931 6.70479e-17
   1.99355 -1.07815e-16
   1.99399 4.73738e-17
   1.99444 1.07265e-16
   1.99488 3.65264e-17
   1.99533 -7.96095e-17
   1.99577 4.14595e-17
   1.99622 -9.47384e-17
   1.99666 3.06834e-17
   1.99711 1.67851e-17
   1.99755 -1.71475e-17
     1.998 -4.79237e-17
   1.99844 1.60719e-17
   1.99889 -1.53064e-17
   1.99933 6.39598e-18
   1.99978 1.68602e-17
         2 1.64259e-17
