         0 -9.17703e-19
 0.0002225 2.28813e-18
 0.0006675 3.52038e-18
 0.0011125 2.41751e-18
 0.0015575 6.34059e-18
 0.0020025 1.04221e-17
 0.0024475 4.7564e-18
 0.0028925 1.47202e-17
 0.0033375 1.15612e-17
 0.0037825 2.43523e-17
 0.0042275 9.93927e-18
 0.0046725 7.99472e-18
 0.0051175 2.70414e-17
 0.0055625 -1.78255e-17
 0.0060075 -3.06977e-19
 0.0064525 -1.85431e-17
 0.0068975 -1.325e-17
 0.0073476 6.82614e-17
0.00781612 -1.52062e-17
0.00831203 4.83699e-17
0.00883694 1.04979e-16
0.00939255 4.36842e-17
0.00998065 1.66153e-17
 0.0106031 6.54027e-17
  0.011262 4.95884e-17
 0.0119594 -8.30072e-18
 0.0126977 2.67446e-17
  0.013479 1.29341e-17
 0.0143061 1.31649e-16
 0.0151815 5.55385e-17
 0.0161082 1.04482e-17
  0.017089 -5.62116e-17
 0.0181271 -2.90351e-17
  0.019226 -5.75828e-17
 0.0203891 3.20675e-17
 0.0216203 5.63333e-17
 0.0229234 7.16686e-17
 0.0243028 7.41702e-18
 0.0257628 9.60915e-18
 0.0273082 2.87409e-17
  0.028944 3.27698e-17
 0.0306754 7.40168e-17
 0.0325081 8.46843e-17
 0.0344479 2.87131e-17
 0.0365012 6.11251e-17
 0.0386746 5.99093e-17
  0.040975 4.30363e-17
   0.04341 -9.19445e-18
 0.0459873 3.93061e-18
 0.0487154 1.88046e-16
  0.051603 2.73054e-17
 0.0546595 -2.1568e-17
 0.0578947 3.15292e-17
 0.0613191 2.40785e-17
 0.0649437 1.56078e-17
 0.0687803 5.24372e-18
 0.0728413 -2.18879e-17
 0.0771397 -1.16697e-17
 0.0816895 7.06331e-18
 0.0865054 3.04497e-17
 0.0916029 -2.64389e-17
 0.0969985 5.44985e-18
   0.10271 2.86318e-17
  0.108755 4.02355e-17
  0.115153 9.59382e-17
  0.121926 4.42344e-17
  0.129095 5.68734e-17
  0.136683 9.19299e-19
  0.144715 2.11946e-17
  0.153216 5.98598e-18
  0.162214 7.29174e-18
  0.171739 -1.87149e-18
  0.181821 2.82744e-17
  0.192492 4.15607e-17
  0.203788 1.62748e-17
  0.215744 2.9585e-18
  0.228399 1.34426e-17
  0.241794 -1.50571e-17
  0.255972 4.41707e-17
   0.27098 -3.62639e-17
  0.286865 -8.04638e-18
  0.304824 2.35922e-20
  0.324407 -6.04165e-17
  0.343989 1.25435e-17
  0.363571 5.05601e-17
  0.383154 6.74556e-18
  0.402736 3.53962e-17
  0.422319 -2.64587e-17
  0.441901 1.58896e-17
  0.461484 -8.6264e-18
  0.481066 3.27261e-18
  0.500648 9.34016e-17
  0.520231 -1.95228e-17
  0.539813 2.93093e-17
  0.559396  -8.34e-18
  0.578978 2.8921e-17
   0.59856 -9.49293e-17
  0.618143 1.82312e-17
  0.637725 1.21623e-17
  0.657308 9.31355e-17
   0.67689 -2.53431e-17
  0.696473 7.03733e-17
  0.716055 3.95978e-17
  0.735637 -1.95818e-17
   0.75522 -4.65654e-17
  0.774802 -1.17554e-16
  0.794385 2.68995e-17
  0.813967 -1.13455e-17
  0.833549 4.97434e-17
  0.853132 -2.13831e-17
  0.872714 9.07972e-17
  0.892297 3.96619e-17
  0.911879 -4.75207e-18
  0.931462 -1.24849e-17
  0.951044 -1.33838e-17
  0.970626 -6.22743e-17
  0.990209 -2.23029e-17
   1.00979 9.70259e-18
   1.02937 7.78375e-17
   1.04896 1.63669e-17
   1.06854 -3.3734e-17
   1.08812 2.91478e-17
    1.1077 1.90159e-17
   1.12729 2.51352e-17
   1.14687 -8.38121e-18
   1.16645 9.51574e-17
   1.18603 -2.4208e-17
   1.20562 -1.20861e-17
    1.2252 -1.81596e-17
   1.24478 5.08104e-17
   1.26436 -1.64754e-17
   1.28395 1.72566e-17
   1.30353 7.34737e-17
   1.32311 -4.35975e-17
   1.34269 2.15897e-17
   1.36228 1.33495e-16
   1.38186 7.5252e-18
   1.40144 6.29751e-17
   1.42102 -5.75388e-17
   1.44061 3.07185e-17
   1.46019 -8.99153e-17
   1.47977 -7.78167e-17
   1.49935 -6.73541e-19
   1.51894 -1.06903e-16
   1.53852 -2.87069e-17
    1.5581  1.817e-17
   1.57768 4.82945e-17
   1.59727 3.08098e-17
   1.61685 1.2373e-17
   1.63643 2.90911e-18
   1.65601 4.81407e-17
    1.6756 5.62365e-17
   1.69518 5.60473e-17
   1.71314 -4.10586e-17
   1.72902 -5.97872e-17
   1.74403 1.99572e-17
   1.75821 4.31346e-18
    1.7716 1.03462e-17
   1.78426 -7.99975e-17
   1.79621 -3.25769e-17
   1.80751 1.79541e-17
   1.81818 -1.86872e-17
   1.82826 -1.50591e-17
   1.83779 4.38636e-17
   1.84679 2.40057e-17
   1.85529 2.29343e-17
   1.86332 1.7203e-17
   1.87091 9.99426e-18
   1.87808 -9.86773e-18
   1.88485 1.29197e-17
   1.89125 -2.44019e-17
   1.89729 4.25571e-17
     1.903 -1.14697e-17
    1.9084 6.40891e-17
    1.9135 1.20017e-17
   1.91831 3.4247e-17
   1.92286 2.0429e-19
   1.92716 1.76035e-17
   1.93122 4.51665e-18
   1.93506 1.0795e-17
   1.93868 -9.4813e-19
   1.94211 4.73212e-18
   1.94534 8.75474e-17
    1.9484 2.84858e-17
   1.95129 1.27857e-16
   1.95401 7.11457e-17
   1.95659 9.64027e-17
   1.95903 2.03322e-17
   1.96133 8.17304e-17
    1.9635 -1.60795e-16
   1.96555 7.49588e-18
   1.96749 9.78045e-17
   1.96933 -1.05242e-16
   1.97106 8.78528e-17
   1.97269 -8.18241e-18
   1.97424 -6.88194e-17
    1.9757 7.65256e-18
   1.97708 -3.33379e-18
   1.97838 2.89389e-16
   1.97961 -2.57011e-16
   1.98077 7.92586e-17
   1.98187 2.35742e-16
   1.98291 -2.10666e-17
   1.98389 -6.85788e-17
   1.98482 -8.46637e-17
   1.98569 8.42715e-17
   1.98652 3.87754e-17
    1.9873 -5.82473e-17
   1.98804 -1.34459e-16
   1.98874 3.95188e-16
    1.9894 -2.55058e-16
   1.99002 1.27374e-16
   1.99061 -1.02029e-17
   1.99116 -4.6135e-16
   1.99169 -9.96696e-17
   1.99218 2.46007e-16
   1.99265 7.86472e-16
    1.9931 -6.87962e-16
   1.99355 2.48405e-16
   1.99399 1.03027e-16
   1.99444 -2.33657e-16
   1.99488 -1.88194e-16
   1.99533 9.44387e-18
   1.99577 1.41235e-16
   1.99622 -1.63497e-16
   1.99666 -1.9676e-16
   1.99711 6.31104e-17
   1.99755 -7.8688e-17
     1.998 4.52192e-17
   1.99844 -4.18424e-17
   1.99889 -2.84089e-17
   1.99933 2.14054e-17
   1.99978 2.03669e-17
         2 2.12648e-17
