         0 2.06047e-19
 0.0002225 9.12562e-20
 0.0006675 1.37534e-19
 0.0011125 -2.07072e-18
 0.0015575 7.79537e-19
 0.0020025 5.29006e-19
 0.0024475 -2.11448e-18
 0.0028925 1.94223e-18
 0.0033375 -1.06666e-18
 0.0037825 -1.66086e-18
 0.0042275 -8.58029e-19
 0.0046725 9.20887e-19
 0.0051175 -7.92582e-18
 0.0055625 -2.08274e-18
 0.0060075 -1.19153e-18
 0.0064525 -1.31202e-18
 0.0068975 -2.08045e-18
 0.0073476 -4.30085e-18
0.00781612 -9.18267e-19
0.00831203 5.97761e-18
0.00883694 5.01256e-18
0.00939255 -2.42944e-18
0.00998065 -2.46814e-19
 0.0106031 -1.63851e-17
  0.011262 -5.2151e-18
 0.0119594 -9.32871e-18
 0.0126977 -3.30415e-18
  0.013479 3.1904e-18
 0.0143061 7.93001e-18
 0.0151815 -3.9688e-17
 0.0161082 -2.81458e-18
  0.017089 -3.20508e-19
 0.0181271 -8.753e-18
  0.019226 1.11847e-18
 0.0203891 2.73652e-18
 0.0216203 -7.96427e-18
 0.0229234 3.19031e-18
 0.0243028 2.94393e-18
 0.0257628 7.34842e-19
 0.0273082 -1.13133e-17
  0.028944 2.54736e-18
 0.0306754 3.38573e-18
 0.0325081 -1.46775e-19
 0.0344479 -3.12252e-18
 0.0365012 4.12034e-18
 0.0386746 4.37174e-18
  0.040975 4.22608e-18
   0.04341 -6.24258e-18
 0.0459873 7.88208e-18
 0.0487154 2.23597e-18
  0.051603 -5.09886e-18
 0.0546595 3.52217e-17
 0.0578947 4.91648e-18
 0.0613191 -1.45712e-18
 0.0649437 -3.81903e-18
 0.0687803 -1.00384e-17
 0.0728413 2.31638e-18
 0.0771397 2.02094e-18
 0.0816895 -3.06729e-18
 0.0865054 -6.1519e-18
 0.0916029 4.4411e-18
 0.0969985 1.42123e-17
   0.10271 1.28261e-17
  0.108755 -1.07656e-17
  0.115153 -1.47852e-18
  0.121926 -7.69026e-18
  0.129095 -4.52018e-18
  0.136683 -2.49564e-17
  0.144715 -1.62831e-17
  0.153216 9.97081e-18
  0.162214 6.39058e-18
  0.171739 3.20586e-18
  0.181821 -5.76793e-18
  0.192492 5.52036e-17
  0.203788 -3.01335e-18
  0.215744 7.27478e-19
  0.228399 -3.72019e-18
  0.241794 8.88905e-18
  0.255972 -6.86242e-18
   0.27098 1.17198e-17
  0.286865 -3.92933e-18
  0.304824 -8.36738e-18
  0.324407 1.13514e-17
  0.343989 -6.20824e-18
  0.363571 -4.12598e-17
  0.383154 -8.70197e-18
  0.402736 9.52571e-18
  0.422319 1.7071e-17
  0.441901 -1.41545e-17
  0.461484 -1.4019e-17
  0.481066 -2.09032e-18
  0.500648 7.15893e-18
  0.520231 1.37816e-17
  0.539813 -1.81543e-19
  0.559396 -1.42607e-17
  0.578978 -9.40478e-18
   0.59856 1.43865e-17
  0.618143 6.40145e-18
  0.637725 -7.40543e-18
  0.657308 -2.52943e-17
   0.67689 -1.76921e-17
  0.696473 -1.45585e-17
  0.716055 -2.29719e-18
  0.735637 1.02991e-17
   0.75522 1.37504e-17
  0.774802 4.15522e-17
  0.794385 8.51959e-18
  0.813967 6.45952e-18
  0.833549 -2.44174e-17
  0.853132 -2.89767e-17
  0.872714 -2.42751e-17
  0.892297 -3.19567e-18
  0.911879 5.48719e-18
  0.931462 8.58262e-18
  0.951044 2.29861e-17
  0.970626 1.2339e-17
  0.990209 1.75677e-17
   1.00979 3.81981e-17
   1.02937 -1.45455e-17
   1.04896 -1.35427e-17
   1.06854 3.56281e-18
   1.08812 -2.00617e-17
    1.1077 -1.04845e-17
   1.12729 -1.38366e-18
   1.14687 -9.99051e-18
   1.16645 -6.69607e-18
   1.18603 -1.61591e-17
   1.20562 -5.3956e-18
    1.2252 -1.16243e-17
   1.24478 -4.43387e-18
   1.26436 -1.03074e-17
   1.28395 6.53291e-18
   1.30353 -1.55765e-17
   1.32311 2.66637e-18
   1.34269 -1.26958e-17
   1.36228 -5.03535e-18
   1.38186 7.33596e-18
   1.40144 -1.15675e-17
   1.42102 1.22691e-17
   1.44061 3.27917e-18
   1.46019 -5.54307e-18
   1.47977 3.53327e-18
   1.49935 -1.40049e-17
   1.51894 7.29182e-19
   1.53852 -2.42217e-18
    1.5581 4.70817e-19
   1.57768 1.07184e-17
   1.59727 -5.26408e-18
   1.61685 -1.22416e-17
   1.63643 1.16866e-17
   1.65601 -5.71956e-18
    1.6756 3.7158e-18
   1.69518 1.1903e-17
   1.71314 9.16852e-18
   1.72902 5.86381e-18
   1.74403 -1.79813e-18
   1.75821 8.99323e-18
    1.7716 -1.10523e-18
   1.78426 -1.34553e-17
   1.79621 -1.05854e-17
   1.80751 -1.01693e-17
   1.81818 4.13779e-18
   1.82826 -7.75478e-18
   1.83779 -4.75714e-18
   1.84679 -7.64603e-18
   1.85529 -6.43382e-18
   1.86332 1.92844e-17
   1.87091 -2.02243e-18
   1.87808 2.67329e-17
   1.88485 5.50815e-18
   1.89125 7.46898e-18
   1.89729 -3.71328e-17
     1.903 1.24445e-17
    1.9084 7.88384e-18
    1.9135 4.5079e-19
   1.91831 -1.89813e-18
   1.92286 2.29579e-18
   1.92716 1.73086e-18
   1.93122 1.46723e-18
   1.93506 -3.17869e-18
   1.93868 3.3905e-18
   1.94211 -1.58686e-18
   1.94534 3.03413e-17
    1.9484 -3.83297e-18
   1.95129 3.92808e-18
   1.95401 -7.13376e-18
   1.95659 -2.36848e-19
   1.95903 1.36142e-18
   1.96133 -1.75643e-18
    1.9635 2.99624e-18
   1.96555 -4.45052e-18
   1.96749 -5.91962e-18
   1.96933 7.30742e-18
   1.97106 -1.13489e-18
   1.97269 6.32089e-18
   1.97424 -3.71578e-19
    1.9757 -2.62531e-18
   1.97708 1.28185e-17
   1.97838 3.09702e-18
   1.97961 -4.44745e-18
   1.98077 1.95005e-18
   1.98187 1.20161e-18
   1.98291 1.15243e-17
   1.98389 5.57424e-18
   1.98482 -7.9884e-18
   1.98569 1.21918e-17
   1.98652 -1.17975e-18
    1.9873 6.29235e-18
   1.98804 -6.80173e-18
   1.98874 2.54484e-19
    1.9894 -1.32099e-18
   1.99002 1.02857e-17
   1.99061 -7.11082e-18
   1.99116 -2.4673e-18
   1.99169 3.07207e-18
   1.99218 -5.41338e-19
   1.99265 1.00369e-17
    1.9931 -8.12409e-18
   1.99355 1.25809e-17
   1.99399 -3.97345e-18
   1.99444 1.8446e-18
   1.99488 5.7916e-18
   1.99533 9.62426e-18
   1.99577 -1.2885e-17
   1.99622  4.244e-19
   1.99666 -3.60563e-18
   1.99711 5.33929e-18
   1.99755 -6.42771e-18
     1.998 6.38107e-18
   1.99844 -1.06148e-18
   1.99889 -4.05383e-19
   1.99933 7.95874e-19
   1.99978 3.03704e-19
         2 2.33112e-19
