         0 -6.56611e-20
 0.0002225 -1.21991e-19
 0.0006675 -4.28218e-20
 0.0011125 -6.60559e-20
 0.0015575 3.78537e-20
 0.0020025 -2.23442e-20
 0.0024475 -7.33221e-20
 0.0028925 -6.80899e-20
 0.0033375 -6.99941e-21
 0.0037825 1.81598e-20
 0.0042275 1.80382e-20
 0.0046725 -7.02566e-20
 0.0051175 -5.46648e-21
 0.0055625 -8.67463e-21
 0.0060075 -4.67189e-21
 0.0064525 1.42902e-20
 0.0068975 -3.81321e-20
 0.0073476 4.21938e-20
0.00781612 4.01435e-20
0.00831203 6.80159e-20
0.00883694 -3.80997e-20
0.00939255 -3.47153e-20
0.00998065 2.02808e-20
 0.0106031 3.10326e-21
  0.011262 6.86338e-20
 0.0119594 2.80722e-20
 0.0126977 1.6781e-20
  0.013479 1.81489e-20
 0.0143061 3.49815e-20
 0.0151815 3.80209e-20
 0.0161082 -3.45381e-20
  0.017089 -2.35973e-21
 0.0181271 3.67519e-20
  0.019226 -8.08141e-20
 0.0203891 -4.24351e-20
 0.0216203 5.4456e-20
 0.0229234 -7.06885e-20
 0.0243028 -7.7304e-20
 0.0257628 -4.21344e-20
 0.0273082 6.8546e-21
  0.028944 -5.92544e-21
 0.0306754 -6.41734e-20
 0.0325081 -1.03628e-20
 0.0344479 -1.79842e-20
 0.0365012 -6.2881e-21
 0.0386746 -3.87738e-21
  0.040975 -4.7214e-20
   0.04341 -3.10277e-20
 0.0459873 -1.241e-20
 0.0487154 3.8538e-21
  0.051603 5.56825e-20
 0.0546595 1.12188e-21
 0.0578947 1.79647e-20
 0.0613191 -1.3285e-20
 0.0649437 -6.24875e-20
 0.0687803 2.16694e-20
 0.0728413 -2.25629e-20
 0.0771397 -1.95406e-20
 0.0816895 2.84829e-20
 0.0865054 7.82028e-21
 0.0916029 -4.29215e-20
 0.0969985 -4.75797e-20
   0.10271 -7.05707e-20
  0.108755 4.39308e-20
  0.115153 -4.49928e-20
  0.121926 4.62943e-20
  0.129095 -7.60161e-21
  0.136683 9.04757e-20
  0.144715 6.94514e-20
  0.153216 -1.25605e-20
  0.162214 -2.23888e-21
  0.171739 -4.0727e-20
  0.181821 6.14225e-20
  0.192492 -1.60898e-19
  0.203788 4.15954e-21
  0.215744 1.50134e-20
  0.228399 -5.482e-22
  0.241794 -1.20132e-20
  0.255972 3.95262e-20
   0.27098 -2.21409e-20
  0.286865 -7.78322e-21
  0.304824 -1.36219e-20
  0.324407 -2.65515e-20
  0.343989 4.17545e-20
  0.363571 9.19887e-20
  0.383154 2.95476e-20
  0.402736 -5.01389e-20
  0.422319 -4.87342e-20
  0.441901 4.28324e-20
  0.461484 2.7528e-20
  0.481066 2.6424e-20
  0.500648 -3.43625e-20
  0.520231 -3.12195e-20
  0.539813 3.63333e-20
  0.559396 4.63988e-20
  0.578978 4.49662e-20
   0.59856 3.36431e-21
  0.618143 -3.18684e-20
  0.637725 8.66847e-21
  0.657308 2.37341e-20
   0.67689 1.38482e-20
  0.696473 2.02055e-20
  0.716055 9.15809e-21
  0.735637 -1.64211e-20
   0.75522 -1.7899e-20
  0.774802 -5.89757e-20
  0.794385 -9.75619e-21
  0.813967 -6.0497e-21
  0.833549 2.56969e-20
  0.853132 2.77639e-20
  0.872714 2.71053e-20
  0.892297 6.90623e-21
  0.911879 -1.32552e-20
  0.931462 -8.05024e-21
  0.951044 -2.16254e-20
  0.970626 -1.30326e-20
  0.990209 -2.21816e-20
   1.00979 -3.54761e-20
   1.02937 1.20685e-20
   1.04896 1.80722e-20
   1.06854 -1.99663e-21
   1.08812 1.64994e-20
    1.1077 8.49157e-21
   1.12729 3.87575e-21
   1.14687 1.89717e-21
   1.16645 2.18295e-20
   1.18603 1.07878e-20
   1.20562 2.04804e-20
    1.2252 5.76064e-21
   1.24478 5.87297e-22
   1.26436 2.33467e-20
   1.28395 -3.50743e-20
   1.30353 2.24743e-20
   1.32311  1.149e-20
   1.34269 3.14494e-20
   1.36228 1.36058e-20
   1.38186 -2.47326e-20
   1.40144 1.4928e-20
   1.42102 -1.04492e-20
   1.44061 -1.58109e-20
   1.46019 5.38945e-20
   1.47977 5.70865e-21
   1.49935 1.99248e-20
   1.51894 -1.09399e-20
   1.53852 5.37137e-22
    1.5581 -4.73794e-20
   1.57768 -2.06119e-20
   1.59727 3.1935e-21
   1.61685 2.53704e-20
   1.63643 -1.72828e-20
   1.65601 2.35453e-20
    1.6756 -1.27387e-21
   1.69518 -2.07309e-20
   1.71314 -1.26671e-20
   1.72902 -1.66306e-20
   1.74403 -2.67466e-20
   1.75821 -5.78563e-20
    1.7716 -1.25806e-20
   1.78426 4.33114e-20
   1.79621 2.58956e-20
   1.80751 3.93746e-20
   1.81818 -1.10084e-20
   1.82826 -6.53178e-21
   1.83779 2.20046e-20
   1.84679 7.5942e-20
   1.85529 1.35254e-20
   1.86332 -1.99924e-20
   1.87091 5.75007e-21
   1.87808 -9.95406e-20
   1.88485 2.22532e-21
   1.89125 2.64979e-21
   1.89729 8.11227e-20
     1.903 -5.67309e-20
    1.9084 5.45462e-21
    1.9135 4.43067e-20
   1.91831 -6.82902e-20
   1.92286 -3.08289e-20
   1.92716 -1.0199e-19
   1.93122 9.01698e-20
   1.93506 4.20627e-20
   1.93868 -1.34461e-20
   1.94211 2.14599e-20
   1.94534 -1.00175e-19
    1.9484 1.22888e-21
   1.95129 -3.90109e-20
   1.95401 1.26085e-19
   1.95659 -1.44009e-21
   1.95903 1.67572e-19
   1.96133 -4.86926e-20
    1.9635 -7.02281e-20
   1.96555 1.48563e-20
   1.96749 6.79806e-20
   1.96933 1.09938e-21
   1.97106 -1.05428e-20
   1.97269 7.22404e-20
   1.97424 6.52429e-20
    1.9757 4.26926e-20
   1.97708 -2.0587e-19
   1.97838 1.1638e-19
   1.97961 -1.49031e-19
   1.98077 1.92274e-19
   1.98187 -7.48419e-20
   1.98291 6.54582e-20
   1.98389 -2.0931e-19
   1.98482 2.5765e-19
   1.98569 -2.69874e-20
   1.98652 -1.97026e-19
    1.9873 2.42753e-19
   1.98804 -1.87987e-19
   1.98874 1.65769e-20
    1.9894 -1.70502e-19
   1.99002 -2.78315e-21
   1.99061 -6.03754e-20
   1.99116 3.95706e-19
   1.99169 -3.16329e-19
   1.99218 -6.07287e-19
   1.99265 5.04952e-19
    1.9931 -7.54499e-20
   1.99355 1.57226e-19
   1.99399 -5.03689e-19
   1.99444 1.90387e-19
   1.99488 -2.83179e-19
   1.99533 2.67008e-19
   1.99577 -4.38068e-19
   1.99622 1.65572e-19
   1.99666 1.75045e-19
   1.99711 -2.04373e-19
   1.99755 -6.18815e-19
     1.998 4.6543e-19
   1.99844 3.62459e-19
   1.99889 -3.23653e-19
   1.99933 -2.36836e-19
   1.99978 -3.00519e-19
         2 -2.95018e-19
