         0 -2.21457e-19
 0.0002225 4.22667e-19
 0.0006675 5.19331e-20
 0.0011125 8.1323e-20
 0.0015575 -8.22091e-20
 0.0020025 -1.68163e-19
 0.0024475 -1.30984e-19
 0.0028925 2.57559e-19
 0.0033375 4.72285e-19
 0.0037825 1.11039e-19
 0.0042275 3.24122e-19
 0.0046725 3.57044e-19
 0.0051175 4.66133e-19
 0.0055625 6.83879e-20
 0.0060075 -5.57081e-19
 0.0064525 -3.25048e-19
 0.0068975 2.20774e-19
 0.0073476 7.08578e-19
0.00781612 3.27244e-19
0.00831203 -2.95731e-19
0.00883694 -1.31134e-19
0.00939255 1.11671e-18
0.00998065 1.07891e-18
 0.0106031 -3.29314e-19
  0.011262 1.39396e-19
 0.0119594 -7.08937e-19
 0.0126977 -2.84473e-20
  0.013479 6.54697e-19
 0.0143061 4.33244e-19
 0.0151815 -9.18092e-20
 0.0161082 -6.12662e-19
  0.017089 -3.36235e-19
 0.0181271 4.66409e-19
  0.019226 1.3803e-19
 0.0203891 5.60498e-19
 0.0216203 7.88163e-19
 0.0229234 2.41287e-19
 0.0243028 3.30833e-19
 0.0257628 3.54421e-19
 0.0273082 1.61112e-19
  0.028944 3.88366e-19
 0.0306754 -6.34675e-19
 0.0325081 -9.37674e-19
 0.0344479 -5.90942e-19
 0.0365012 -4.29307e-19
 0.0386746 -1.57903e-20
  0.040975 -4.80499e-19
   0.04341 -8.90455e-19
 0.0459873 -7.70313e-19
 0.0487154 -1.75007e-18
  0.051603 -1.53702e-18
 0.0546595 -1.31397e-18
 0.0578947 -9.31848e-19
 0.0613191 -1.04791e-18
 0.0649437 -1.54324e-18
 0.0687803 -9.23577e-19
 0.0728413 -1.15699e-18
 0.0771397 -6.62712e-19
 0.0816895 -5.99969e-19
 0.0865054 -6.67242e-19
 0.0916029 -6.22382e-19
 0.0969985 -7.89462e-19
   0.10271 -4.99696e-19
  0.108755 -4.49695e-19
  0.115153 -7.69385e-19
  0.121926 -3.60473e-19
  0.129095 -3.72399e-19
  0.136683 -7.03812e-20
  0.144715 -3.00376e-19
  0.153216 -4.33538e-19
  0.162214 -1.57361e-19
  0.171739 -1.19676e-19
  0.181821 -2.21004e-20
  0.192492 -1.9044e-19
  0.203788 -2.2719e-19
  0.215744 -3.43893e-19
  0.228399 -1.40082e-19
  0.241794 -1.64628e-19
  0.255972 -1.3286e-19
   0.27098 -1.27042e-19
  0.286865 -1.90113e-19
  0.304824 2.32817e-19
  0.324407 -2.04481e-20
  0.343989 -2.34426e-19
  0.363571 1.75827e-19
  0.383154 4.57725e-19
  0.402736 4.34301e-19
  0.422319 4.93749e-19
  0.441901 5.65333e-19
  0.461484 -4.58046e-19
  0.481066 -1.22352e-19
  0.500648 2.11181e-19
  0.520231 2.22352e-19
  0.539813 -4.03249e-19
  0.559396 3.93542e-19
  0.578978 1.45621e-19
   0.59856 -2.33153e-19
  0.618143 -4.47255e-20
  0.637725 -3.74744e-20
  0.657308 -1.37943e-20
   0.67689 -3.29915e-19
  0.696473 -5.44706e-19
  0.716055 -2.10805e-19
  0.735637 -4.09839e-20
   0.75522 -2.60132e-19
  0.774802 2.55281e-19
  0.794385 -3.77628e-20
  0.813967 -8.18708e-20
  0.833549 -4.03897e-19
  0.853132 -1.54755e-19
  0.872714 5.23117e-20
  0.892297 1.46888e-20
  0.911879 -4.55495e-20
  0.931462 2.3473e-22
  0.951044 2.99457e-20
  0.970626 1.36157e-20
  0.990209 2.64191e-19
   1.00979 5.89427e-20
   1.02937 -7.35005e-20
   1.04896 1.16447e-19
   1.06854 -1.48606e-19
   1.08812 -1.3361e-19
    1.1077 2.73327e-21
   1.12729 -1.80189e-20
   1.14687 1.1571e-19
   1.16645 -2.25679e-20
   1.18603 -1.72841e-19
   1.20562 -8.45043e-20
    1.2252 -1.17132e-19
   1.24478 -5.2596e-20
   1.26436 -1.84407e-20
   1.28395 8.79993e-21
   1.30353 1.73196e-20
   1.32311 1.5279e-19
   1.34269 -1.59479e-19
   1.36228 -6.74365e-19
   1.38186 1.57561e-19
   1.40144 -2.23707e-19
   1.42102 -5.29382e-20
   1.44061 5.77723e-20
   1.46019 -2.27816e-19
   1.47977 -5.49319e-20
   1.49935 -7.45197e-20
   1.51894 -1.07189e-19
   1.53852 -2.01058e-19
    1.5581 -8.47409e-20
   1.57768 5.45874e-20
   1.59727 -2.17144e-20
   1.61685 8.75154e-20
   1.63643 9.39561e-20
   1.65601 3.27938e-19
    1.6756 5.58872e-19
   1.69518 6.4558e-19
   1.71314 2.40792e-19
   1.72902 5.9183e-19
   1.74403 7.21305e-19
   1.75821 3.61945e-19
    1.7716 6.25294e-19
   1.78426 6.82167e-19
   1.79621 6.4437e-19
   1.80751 4.05767e-19
   1.81818 5.17858e-19
   1.82826 8.50893e-19
   1.83779 3.17075e-19
   1.84679 3.6349e-19
   1.85529 3.01235e-20
   1.86332 2.02152e-19
   1.87091 1.58987e-19
   1.87808 4.70427e-19
   1.88485 2.43768e-19
   1.89125 2.5644e-19
   1.89729 6.75408e-19
     1.903 5.36966e-19
    1.9084 2.90548e-19
    1.9135 1.01137e-18
   1.91831 6.79388e-19
   1.92286 2.48248e-19
   1.92716 2.79234e-20
   1.93122 2.46559e-18
   1.93506 -1.7243e-18
   1.93868 9.82533e-19
   1.94211 8.74534e-19
   1.94534 6.85131e-19
    1.9484 2.07712e-18
   1.95129 2.87962e-19
   1.95401 7.25766e-19
   1.95659 1.27961e-18
   1.95903 5.55138e-19
   1.96133 1.49334e-18
    1.9635 1.10337e-18
   1.96555 -1.16895e-18
   1.96749 1.66628e-18
   1.96933 3.30228e-18
   1.97106 -1.04122e-18
   1.97269 -9.01293e-19
   1.97424 1.81783e-18
    1.9757 4.21322e-18
   1.97708 -3.69963e-18
   1.97838 3.92861e-18
   1.97961 -2.37093e-18
   1.98077 1.26551e-18
   1.98187 3.07629e-18
   1.98291 1.45795e-19
   1.98389 -1.44669e-18
   1.98482 -4.81754e-19
   1.98569 -2.97496e-19
   1.98652 -1.15397e-18
    1.9873 4.35999e-18
   1.98804 -1.38629e-18
   1.98874 -1.60573e-18
    1.9894 3.48952e-18
   1.99002 -1.44355e-18
   1.99061 4.75995e-19
   1.99116 -6.8297e-18
   1.99169 -6.42524e-18
   1.99218 6.90433e-18
   1.99265 9.73508e-18
    1.9931 -9.93349e-18
   1.99355 1.23707e-17
   1.99399 -6.44191e-18
   1.99444 -1.51414e-18
   1.99488 -2.61176e-18
   1.99533 5.72398e-18
   1.99577 1.74254e-18
   1.99622 -3.75256e-18
   1.99666 -5.51734e-18
   1.99711 7.08994e-18
   1.99755 -6.2096e-18
     1.998 3.92789e-19
   1.99844 -7.2861e-19
   1.99889 2.71565e-18
   1.99933 -2.23495e-18
   1.99978 -1.97711e-18
         2 -1.79205e-18
