         0  0.0368908
 0.0002225  0.0368908
 0.0006675  -0.079798
 0.0011125    -0.2638
 0.0015575  -0.139721
 0.0020025 -0.0579603
 0.0024475 -0.0338238
 0.0028925 -0.0186262
 0.0033375 -0.0041803
 0.0037825 0.00622344
 0.0042275  0.0123503
 0.0046725  0.0147982
 0.0051175  0.0141101
 0.0055625  0.0159045
 0.0060075  0.0375241
 0.0064525  0.0781527
 0.0068975  0.0318559
 0.0073476 -0.0910314
0.00781612 -0.0851822
0.00831203 -0.0317758
0.00883694  -0.018598
0.00939255 -0.0211508
0.00998065 -0.0219952
 0.0106031 -0.0199532
  0.011262   -0.01668
 0.0119594 -0.0128673
 0.0126977 -0.00831081
  0.013479 -0.00333044
 0.0143061 0.00198084
 0.0151815 0.00725559
 0.0161082  0.0122453
  0.017089  0.0164505
 0.0181271  0.0197304
  0.019226  0.0213439
 0.0203891  0.0218393
 0.0216203  0.0206655
 0.0229234  0.0176994
 0.0243028   0.013382
 0.0257628 0.00956504
 0.0273082 0.00834326
  0.028944   0.010352
 0.0306754 0.00713787
 0.0325081 0.000251383
 0.0344479 -0.00192489
 0.0365012 -0.000830678
 0.0386746 -0.00183217
  0.040975 -0.00397033
   0.04341 -0.00140385
 0.0459873 -0.00629141
 0.0487154 -0.0193111
  0.051603 -0.0138484
 0.0546595 -0.0014552
 0.0578947 -0.00206856
 0.0613191 -0.00095751
 0.0649437 -0.00537684
 0.0687803 -0.000364775
 0.0728413 -0.000868558
 0.0771397 0.00524701
 0.0816895 0.00128132
 0.0865054 -0.00699058
 0.0916029 0.00462987
 0.0969985 0.00745005
   0.10271 -0.00289423
  0.108755  0.0185682
  0.115153 -0.0225246
  0.121926  0.0111432
  0.129095 0.00232634
  0.136683 -0.00128939
  0.144715 -0.00723111
  0.153216 0.00949942
  0.162214 -0.00622064
  0.171739  0.0147292
  0.181821 -0.0270196
  0.192492  0.0428884
  0.203788 -0.0682288
  0.215744  0.0983937
  0.228399  -0.130772
  0.241794   0.169696
  0.255972  -0.219103
   0.27098   0.241848
  0.286865    -0.1376
  0.304824 -0.0455969
  0.324407   0.143696
  0.343989  -0.139274
  0.363571   0.106474
  0.383154 -0.0804055
  0.402736  0.0549017
  0.422319 -0.0330826
  0.441901  0.0160243
  0.461484 -0.00367807
  0.481066 -0.00801716
  0.500648  0.0167503
  0.520231 -0.0168256
  0.539813  0.0116561
  0.559396 -0.00730835
  0.578978 0.00534423
   0.59856 -0.00438503
  0.618143  0.0041255
  0.637725 -0.00289724
  0.657308 -3.12472e-05
   0.67689 0.00036087
  0.696473 -0.000166662
  0.716055 0.00110927
  0.735637 -0.000784212
   0.75522 -0.000406674
  0.774802 0.00186398
  0.794385 -0.000684742
  0.813967 0.000436793
  0.833549 -0.00563652
  0.853132  0.0093121
  0.872714 -0.00697735
  0.892297 0.00233442
  0.911879 0.000382606
  0.931462 -0.00048006
  0.951044 0.00107599
  0.970626 -0.000945289
  0.990209 -0.00155894
   1.00979 0.00216639
   1.02937 -0.000739129
   1.04896 0.00103947
   1.06854 -0.000584709
   1.08812 -0.00132907
    1.1077 0.00116924
   1.12729 0.000739183
   1.14687 -0.00145695
   1.16645  0.0011554
   1.18603 0.000448941
   1.20562 -0.00644896
    1.2252 0.00885778
   1.24478 -0.00428629
   1.26436 0.00208671
   1.28395 -0.00347971
   1.30353 0.00493937
   1.32311 -0.00478606
   1.34269 0.000958517
   1.36228 0.00767243
   1.38186 -0.0150487
   1.40144  0.0129203
   1.42102 -0.00662086
   1.44061 0.000562029
   1.46019  0.0057788
   1.47977 -0.00911876
   1.49935   0.011491
   1.51894 -0.0154065
   1.53852  0.0221896
    1.5581 -0.0321435
   1.57768  0.0464866
   1.59727 -0.0675263
   1.61685  0.0937633
   1.63643  -0.125115
   1.65601   0.168538
    1.6756  -0.175681
   1.69518  0.0682078
   1.71314   0.119703
   1.72902   -0.22313
   1.74403   0.194582
   1.75821  -0.136524
    1.7716  0.0955389
   1.78426 -0.0742664
   1.79621  0.0602862
   1.80751 -0.0451994
   1.81818  0.0326939
   1.82826 -0.0222508
   1.83779 0.00696748
   1.84679 0.00184933
   1.85529 -0.000584278
   1.86332 -0.00287575
   1.87091 0.00545718
   1.87808 -0.00668126
   1.88485 -0.00814897
   1.89125 0.00698636
   1.89729 0.00110745
     1.903 0.00114984
    1.9084 -0.0167611
    1.9135 0.00445625
   1.91831 0.00593637
   1.92286 -0.00230297
   1.92716 -0.00606992
   1.93122 -0.00264937
   1.93506 0.00679456
   1.93868    0.01018
   1.94211 0.00644044
   1.94534 0.00357316
    1.9484 0.00305536
   1.95129 0.00295188
   1.95401 0.00991093
   1.95659  0.0116015
   1.95903 0.00607415
   1.96133  0.0035811
    1.9635 0.00413363
   1.96555 -0.000640796
   1.96749 -0.00693914
   1.96933 -0.00940365
   1.97106 -0.00857621
   1.97269 -0.00925701
   1.97424 -0.0119248
    1.9757  -0.014004
   1.97708 -0.0160079
   1.97838  -0.018252
   1.97961 -0.0195175
   1.98077 -0.0196841
   1.98187 -0.0183383
   1.98291 -0.0157852
   1.98389 -0.0119973
   1.98482 -0.00720731
   1.98569 -0.00213617
   1.98652 0.00327258
    1.9873 0.00835582
   1.98804  0.0129439
   1.98874  0.0167822
    1.9894  0.0199724
   1.99002  0.0218533
   1.99061  0.0209711
   1.99116  0.0183877
   1.99169  0.0314183
   1.99218  0.0842259
   1.99265  0.0895964
    1.9931 -0.0320817
   1.99355 -0.0774731
   1.99399 -0.0371032
   1.99444 -0.0157028
   1.99488 -0.0139148
   1.99533 -0.0145584
   1.99577 -0.0120953
   1.99622 -0.00599963
   1.99666 0.00429552
   1.99711  0.0185624
   1.99755   0.033552
     1.998  0.0573595
   1.99844   0.138034
   1.99889   0.260316
   1.99933   0.078266
   1.99978 -0.0368199
         2 -0.0368199
