         0   -58.1791
 0.0002225   -58.1791
 0.0006675   -116.762
 0.0011125   -235.463
 0.0015575   -414.308
 0.0020025   -649.048
 0.0024475   -930.865
 0.0028925   -1246.93
 0.0033375   -1581.68
 0.0037825   -1918.48
 0.0042275   -2241.37
 0.0046725   -2536.55
 0.0051175   -2793.37
 0.0055625   -3004.78
 0.0060075   -3167.28
 0.0064525   -3280.52
 0.0068975   -3346.71
 0.0073476   -3370.14
0.00781612   -3353.96
0.00831203   -3298.71
0.00883694   -3206.16
0.00939255   -3079.73
0.00998065   -2924.22
 0.0106031   -2745.45
  0.011262   -2549.81
 0.0119594   -2343.83
 0.0126977   -2133.76
  0.013479   -1925.21
 0.0143061   -1722.91
 0.0151815   -1530.59
 0.0161082   -1350.93
  0.017089   -1185.58
 0.0181271   -1035.38
  0.019226   -900.429
 0.0203891   -780.308
 0.0216203   -674.231
 0.0229234   -581.166
 0.0243028   -499.932
 0.0257628   -429.292
 0.0273082   -368.032
  0.028944   -315.026
 0.0306754   -269.232
 0.0325081   -229.769
 0.0344479    -195.82
 0.0365012   -166.736
 0.0386746   -141.858
  0.040975   -120.531
   0.04341   -102.221
 0.0459873   -86.5551
 0.0487154   -73.1699
  0.051603   -61.6843
 0.0546595   -51.8859
 0.0578947   -43.7476
 0.0613191    -37.102
 0.0649437   -31.4884
 0.0687803   -26.7572
 0.0728413    -22.905
 0.0771397   -19.5901
 0.0816895   -16.6219
 0.0865054   -14.1813
 0.0916029   -12.2748
 0.0969985   -10.7861
   0.10271   -9.56619
  0.108755   -8.46279
  0.115153   -7.40676
  0.121926   -6.47557
  0.129095   -5.82087
  0.136683   -5.16151
  0.144715   -4.56174
  0.153216    -3.9578
  0.162214   -3.41439
  0.171739   -3.11956
  0.181821   -2.79893
  0.192492   -2.59176
  0.203788   -2.15673
  0.215744   -1.91445
  0.228399   -1.68853
  0.241794   -1.51754
  0.255972    -1.0793
   0.27098   -1.37324
  0.286865  -0.759384
  0.304824  -0.764496
  0.324407   -1.43978
  0.343989   -1.10673
  0.363571   -1.00125
  0.383154  -0.857231
  0.402736  -0.787075
  0.422319  -0.848492
  0.441901  -0.644458
  0.461484  -0.787529
  0.481066  -0.655769
  0.500648  -0.871814
  0.520231  -0.753686
  0.539813  -0.655971
  0.559396  -0.612223
  0.578978  -0.655517
   0.59856  -0.648939
  0.618143  -0.675048
  0.637725  -0.634053
  0.657308   -0.65406
   0.67689  -0.482931
  0.696473  -0.465243
  0.716055  -0.494565
  0.735637  -0.577154
   0.75522  -0.555686
  0.774802  -0.674426
  0.794385  -0.756849
  0.813967   -0.69191
  0.833549  -0.844501
  0.853132  -0.848647
  0.872714  -0.847134
  0.892297  -0.869267
  0.911879  -0.979551
  0.931462   -1.09297
  0.951044    -1.0784
  0.970626  -0.992553
  0.990209   -0.94748
   1.00979   -1.06887
   1.02937   -1.03825
   1.04896  -0.914133
   1.06854  -0.925857
   1.08812  -0.944734
    1.1077  -0.881111
   1.12729  -0.850239
   1.14687  -0.831581
   1.16645  -0.830051
   1.18603  -0.853465
   1.20562  -0.746581
    1.2252  -0.655794
   1.24478  -0.632917
   1.26436  -0.633442
   1.28395  -0.641347
   1.30353  -0.701604
   1.32311  -0.763234
   1.34269  -0.618704
   1.36228  -0.567746
   1.38186  -0.628691
   1.40144  -0.597142
   1.42102  -0.604697
   1.44061  -0.595248
   1.46019  -0.615594
   1.47977  -0.768807
   1.49935   -0.64202
   1.51894  -0.674775
   1.53852  -0.796995
    1.5581  -0.690142
   1.57768  -0.863294
   1.59727   -1.05533
   1.61685  -0.907456
   1.63643   -1.25875
   1.65601  -0.959879
    1.6756   -1.18674
   1.69518  -0.941635
   1.71314   -1.05343
   1.72902   -1.55269
   1.74403   -1.31391
   1.75821   -1.68154
    1.7716   -1.76548
   1.78426   -2.10154
   1.79621    -2.1845
   1.80751   -2.49956
   1.81818   -2.71965
   1.82826   -3.12421
   1.83779   -3.61967
   1.84679    -4.1833
   1.85529   -4.60655
   1.86332   -5.06441
   1.87091   -5.59417
   1.87808    -6.1905
   1.88485   -6.89442
   1.89125   -7.86277
   1.89729   -9.01126
     1.903   -10.2699
    1.9084    -11.895
    1.9135   -13.8829
   1.91831   -16.2132
   1.92286   -19.0108
   1.92716   -22.3354
   1.93122   -26.3442
   1.93506   -31.0501
   1.93868   -36.5617
   1.94211   -43.2323
   1.94534   -51.2939
    1.9484   -60.8217
   1.95129   -72.0337
   1.95401   -85.3184
   1.95659    -100.98
   1.95903   -119.325
   1.96133   -140.824
    1.9635   -165.949
   1.96555   -195.133
   1.96749   -228.959
   1.96933   -268.211
   1.97106   -313.775
   1.97269   -366.628
   1.97424   -427.814
    1.9757   -498.403
   1.97708   -579.517
   1.97838   -672.321
   1.97961   -777.973
   1.98077   -897.513
   1.98187   -1031.74
   1.98291   -1181.04
   1.98389   -1345.27
   1.98482   -1523.56
   1.98569   -1714.18
   1.98652   -1914.43
    1.9873   -2120.59
   1.98804   -2327.95
   1.98874   -2530.96
    1.9894   -2723.46
   1.99002   -2899.02
   1.99061   -3051.37
   1.99116   -3174.82
   1.99169   -3264.69
   1.99218   -3317.66
   1.99265   -3332.06
    1.9931   -3307.43
   1.99355   -3240.65
   1.99399   -3127.54
   1.99444   -2966.02
   1.99488   -2756.47
   1.99533   -2502.37
   1.99577    -2210.7
   1.99622   -1891.95
   1.99666    -1559.7
   1.99711   -1229.61
   1.99755   -918.039
     1.998    -640.28
   1.99844   -408.938
   1.99889   -232.686
   1.99933   -115.712
   1.99978   -58.0073
         2   -58.0073
