         0 0.00952503
 0.0002225 0.00952503
 0.0006675  0.0570038
 0.0011125   0.143157
 0.0015575   0.260615
 0.0020025   0.399641
 0.0024475   0.549639
 0.0028925   0.700228
 0.0033375   0.842146
 0.0037825    0.96801
 0.0042275    1.07274
 0.0046725    1.15369
 0.0051175    1.21038
 0.0055625    1.24413
 0.0060075    1.25743
 0.0064525    1.25338
 0.0068975    1.23524
 0.0073476    1.20594
0.00781612     1.1662
0.00831203     1.1145
0.00883694     1.0497
0.00939255   0.970226
0.00998065   0.874248
 0.0106031   0.761045
  0.011262   0.632294
 0.0119594   0.493644
 0.0126977   0.355809
  0.013479   0.232416
 0.0143061   0.136957
 0.0151815  0.0784181
 0.0161082  0.0581467
  0.017089  0.0693738
 0.0181271   0.100262
  0.019226   0.137589
 0.0203891   0.172572
 0.0216203   0.204962
 0.0229234   0.237886
 0.0243028   0.273204
 0.0257628   0.313623
 0.0273082   0.364272
  0.028944   0.420687
 0.0306754   0.469629
 0.0325081   0.504799
 0.0344479   0.509453
 0.0365012   0.457989
 0.0386746   0.370218
  0.040975   0.294183
   0.04341   0.265443
 0.0459873   0.248245
 0.0487154   0.180254
  0.051603   0.109198
 0.0546595   0.101742
 0.0578947    0.13551
 0.0613191  0.0885416
 0.0649437 -0.0393892
 0.0687803  -0.140521
 0.0728413  -0.241278
 0.0771397  -0.302311
 0.0816895  -0.261484
 0.0865054  -0.190151
 0.0916029 -0.0915007
 0.0969985  0.0248813
   0.10271  0.0686601
  0.108755 -0.0454107
  0.115153  -0.102584
  0.121926  0.0376833
  0.129095   0.079296
  0.136683  0.0658345
  0.144715  0.0304022
  0.153216 0.00306715
  0.162214   0.104447
  0.171739  0.0900245
  0.181821  0.0175394
  0.192492  -0.199032
  0.203788  -0.242559
  0.215744  -0.214368
  0.228399  0.0590144
  0.241794   0.220529
  0.255972  0.0559216
   0.27098  0.0229756
  0.286865  -0.187834
  0.304824    0.13559
  0.324407  0.0927975
  0.343989  0.0164008
  0.363571 -0.0244506
  0.383154 -0.0829626
  0.402736 0.00420815
  0.422319 -0.0638316
  0.441901 -0.0166361
  0.461484  0.0711647
  0.481066  -0.037741
  0.500648  -0.110928
  0.520231  0.0920716
  0.539813   0.195376
  0.559396  0.0932855
  0.578978  0.0148098
   0.59856   0.046987
  0.618143  0.0286417
  0.637725  0.0426164
  0.657308 -0.0231132
   0.67689 -0.0216647
  0.696473 0.00102975
  0.716055  0.0389426
  0.735637 -0.0276654
   0.75522 -0.0495746
  0.774802  0.0398679
  0.794385   0.110098
  0.813967 -0.00930274
  0.833549  -0.058927
  0.853132  0.0383551
  0.872714  0.0241333
  0.892297 -0.0202557
  0.911879 -0.00338291
  0.931462 -0.0100263
  0.951044 -0.0342876
  0.970626 -0.0625205
  0.990209 0.00320101
   1.00979   0.079288
   1.02937  0.0116912
   1.04896  0.0637337
   1.06854  0.0411814
   1.08812  0.0195348
    1.1077  0.0125004
   1.12729 -0.0751342
   1.14687 -0.0860786
   1.16645 -0.0277724
   1.18603   0.082506
   1.20562   0.012165
    1.2252 -0.0957727
   1.24478 -0.0722882
   1.26436 -0.0916932
   1.28395  -0.103395
   1.30353  -0.119938
   1.32311  -0.110536
   1.34269 -0.0118032
   1.36228  0.0693918
   1.38186  0.0644956
   1.40144  0.0133275
   1.42102   0.102086
   1.44061   0.070137
   1.46019   0.010654
   1.47977 -0.0747635
   1.49935 -0.0775528
   1.51894  0.0209548
   1.53852  -0.226082
    1.5581  0.0501522
   1.57768   0.191635
   1.59727   0.161082
   1.61685    0.13944
   1.63643  0.0713452
   1.65601 -0.0496221
    1.6756  -0.170356
   1.69518 -0.0291896
   1.71314  0.0588742
   1.72902   0.073162
   1.74403  0.0695881
   1.75821 -0.0800568
    1.7716 -0.0797815
   1.78426 -0.0244602
   1.79621  0.0216981
   1.80751  0.0984393
   1.81818 -0.0198816
   1.82826 -0.0219754
   1.83779 -0.0349146
   1.84679  -0.172917
   1.85529  -0.151389
   1.86332 -0.0131137
   1.87091  0.0969979
   1.87808   0.163987
   1.88485   0.128739
   1.89125   0.170387
   1.89729   0.204567
     1.903   0.114709
    1.9084  0.0816864
    1.9135   0.155637
   1.91831    0.13428
   1.92286  0.0209436
   1.92716 -0.0132629
   1.93122  -0.019351
   1.93506 -0.0581474
   1.93868  -0.104224
   1.94211  -0.130813
   1.94534  -0.124027
    1.9484    -0.1691
   1.95129  -0.252335
   1.95401   -0.31737
   1.95659  -0.388598
   1.95903  -0.446954
   1.96133  -0.448005
    1.9635  -0.425076
   1.96555  -0.423082
   1.96749  -0.438538
   1.96933  -0.456362
   1.97106  -0.460958
   1.97269  -0.440349
   1.97424  -0.405624
    1.9757  -0.390499
   1.97708  -0.418948
   1.97838  -0.485797
   1.97961  -0.580837
   1.98077  -0.705986
   1.98187  -0.865713
   1.98291   -1.05382
   1.98389   -1.25708
   1.98482   -1.46261
   1.98569   -1.66088
   1.98652   -1.84408
    1.9873   -2.00482
   1.98804   -2.13726
   1.98874   -2.23933
    1.9894   -2.31273
   1.99002   -2.36206
   1.99061   -2.39331
   1.99116   -2.41275
   1.99169   -2.42547
   1.99218   -2.43477
   1.99265   -2.44209
    1.9931   -2.44779
   1.99355   -2.44868
   1.99399   -2.43814
   1.99444   -2.40777
   1.99488   -2.34776
   1.99533   -2.24832
   1.99577   -2.10183
   1.99622   -1.90514
   1.99666   -1.66122
   1.99711   -1.37989
   1.99755   -1.07744
     1.998  -0.774993
   1.99844  -0.496022
   1.99889  -0.263575
   1.99933 -0.0976281
   1.99978 -0.0127582
         2 -0.0127582
