         0          0
 0.0002225 3.85559e-08
 0.0006675 1.22982e-07
 0.0011125 1.92099e-07
 0.0015575 2.10606e-07
 0.0020025 2.02543e-07
 0.0024475 1.8346e-07
 0.0028925 1.58056e-07
 0.0033375 1.29378e-07
 0.0037825 1.00102e-07
 0.0042275 7.19386e-08
 0.0046725 4.59767e-08
 0.0051175 2.27361e-08
 0.0055625 2.05001e-09
 0.0060075 -1.59016e-08
 0.0064525 -2.67052e-08
 0.0068975 -2.26249e-08
 0.0073476 -1.20473e-08
0.00781612 -1.99491e-08
0.00831203 -4.83166e-08
0.00883694 -8.70434e-08
0.00939255 -1.33432e-07
0.00998065 -1.89523e-07
 0.0106031 -2.56663e-07
  0.011262 -3.34071e-07
 0.0119594 -4.21295e-07
 0.0126977 -5.19067e-07
  0.013479 -6.29424e-07
 0.0143061 -7.48234e-07
 0.0151815 -8.73564e-07
 0.0161082 -9.92752e-07
  0.017089 -1.09822e-06
 0.0181271 -1.17783e-06
  0.019226 -1.26389e-06
 0.0203891 -1.39621e-06
 0.0216203 -1.56426e-06
 0.0229234 -1.69894e-06
 0.0243028 -1.72604e-06
 0.0257628 -1.64648e-06
 0.0273082 -1.58874e-06
  0.028944 -1.5319e-06
 0.0306754 -1.33704e-06
 0.0325081 -1.03232e-06
 0.0344479 -7.22649e-07
 0.0365012 -1.69883e-07
 0.0386746 -1.02357e-07
  0.040975 -1.4485e-06
   0.04341 -2.6938e-06
 0.0459873 -2.0149e-06
 0.0487154 -5.514e-07
  0.051603 -8.92247e-08
 0.0546595 -5.72299e-07
 0.0578947 -5.51542e-07
 0.0613191 1.94255e-06
 0.0649437 4.54699e-06
 0.0687803 7.56543e-07
 0.0728413 -3.7764e-06
 0.0771397 -4.47173e-06
 0.0816895 -9.22347e-07
 0.0865054 1.51641e-06
 0.0916029 -1.45024e-06
 0.0969985 -8.05854e-06
   0.10271 -4.71584e-06
  0.108755 2.40069e-06
  0.115153 -3.33422e-06
  0.121926 -1.39201e-05
  0.129095 -7.42219e-06
  0.136683 3.49442e-06
  0.144715 1.81044e-06
  0.153216 -3.37743e-06
  0.162214 -2.03857e-05
  0.171739 -7.0987e-06
  0.181821 6.05412e-06
  0.192492 -8.11761e-06
  0.203788 1.85621e-05
  0.215744 -3.79799e-05
  0.228399 2.5608e-05
  0.241794 -4.25676e-05
  0.255972 4.09604e-05
   0.27098 -4.86365e-05
  0.286865 3.65143e-05
  0.304824 -3.06512e-05
  0.324407 -1.4058e-05
  0.343989 4.2826e-05
  0.363571 -4.31811e-05
  0.383154 1.97102e-05
  0.402736 -3.42532e-05
  0.422319 3.02191e-05
  0.441901 -2.1449e-05
  0.461484 2.17493e-05
  0.481066 -1.73669e-05
  0.500648 -1.14214e-05
  0.520231 1.53305e-05
  0.539813 -5.80948e-06
  0.559396 -9.93586e-06
  0.578978 2.66079e-05
   0.59856 -3.06249e-05
  0.618143 1.86243e-05
  0.637725 -1.08409e-05
  0.657308 -8.30562e-06
   0.67689 1.74244e-05
  0.696473 -1.83219e-05
  0.716055 7.73921e-06
  0.735637 7.04443e-06
   0.75522 -1.48625e-05
  0.774802 1.55118e-05
  0.794385 -2.54256e-05
  0.813967 2.12242e-05
  0.833549 -2.43592e-05
  0.853132 1.8154e-05
  0.872714 7.08374e-07
  0.892297 -1.40034e-05
  0.911879 5.17961e-06
  0.931462 -1.88876e-06
  0.951044 -5.01142e-06
  0.970626 1.50772e-05
  0.990209 -7.53359e-07
   1.00979 5.05101e-08
   1.02937 4.78101e-07
   1.04896 6.29787e-06
   1.06854 -1.47782e-05
   1.08812 9.16808e-07
    1.1077 7.47196e-06
   1.12729 -1.26418e-06
   1.14687 5.9835e-06
   1.16645 -1.3724e-05
   1.18603 1.05224e-05
   1.20562 1.0596e-05
    1.2252 2.66849e-06
   1.24478 -3.41826e-06
   1.26436 -1.61727e-05
   1.28395 1.41326e-05
   1.30353 -1.69963e-05
   1.32311 3.90602e-05
   1.34269 -2.7252e-05
   1.36228 1.01703e-05
   1.38186 -9.94702e-06
   1.40144 1.99205e-05
   1.42102 -2.05941e-05
   1.44061 2.08847e-05
   1.46019 -1.625e-05
   1.47977 4.01796e-05
   1.49935 -3.32909e-05
   1.51894 9.57847e-06
   1.53852 4.33073e-06
    1.5581 -1.03526e-05
   1.57768 3.1945e-06
   1.59727 1.76644e-05
   1.61685 -9.03246e-06
   1.63643 1.30601e-05
   1.65601 -4.89146e-06
    1.6756 3.64386e-05
   1.69518 -3.32141e-05
   1.71314 -8.17751e-06
   1.72902 2.59243e-05
   1.74403 -4.05303e-06
   1.75821 3.16171e-06
    1.7716 -1.6129e-05
   1.78426 3.53627e-05
   1.79621 -4.09072e-07
   1.80751 -3.22986e-06
   1.81818 -1.26975e-06
   1.82826 1.54061e-05
   1.83779 2.69723e-06
   1.84679 9.49114e-06
   1.85529 -4.48544e-06
   1.86332 3.10495e-06
   1.87091 6.43898e-06
   1.87808 3.41296e-06
   1.88485 5.10755e-06
   1.89125 -3.99151e-06
   1.89729 -1.39141e-07
     1.903 7.47761e-06
    1.9084 6.07303e-06
    1.9135 5.43469e-06
   1.91831 3.39451e-06
   1.92286 -1.8026e-06
   1.92716 -6.84509e-07
   1.93122 9.57313e-07
   1.93506 9.35713e-07
   1.93868 -1.17092e-06
   1.94211 -1.2643e-06
   1.94534 1.27389e-06
    1.9484 1.47969e-06
   1.95129 -3.14098e-07
   1.95401 -6.31114e-07
   1.95659 -1.51211e-08
   1.95903 3.36434e-07
   1.96133 3.41918e-07
    1.9635 3.79634e-07
   1.96555 6.20192e-07
   1.96749 1.03556e-06
   1.96933 1.40411e-06
   1.97106 1.69111e-06
   1.97269 1.97996e-06
   1.97424 2.10452e-06
    1.9757 2.02088e-06
   1.97708 1.83084e-06
   1.97838 1.66731e-06
   1.97961 1.56054e-06
   1.98077 1.4664e-06
   1.98187 1.35979e-06
   1.98291 1.23629e-06
   1.98389 1.09452e-06
   1.98482 9.40578e-07
   1.98569 7.90289e-07
   1.98652 6.51577e-07
    1.9873 5.31953e-07
   1.98804 4.2998e-07
   1.98874 3.42296e-07
    1.9894 2.65349e-07
   1.99002 1.98697e-07
   1.99061  1.436e-07
   1.99116 9.62688e-08
   1.99169 5.60153e-08
   1.99218 2.59424e-08
   1.99265 1.74786e-08
    1.9931 2.85259e-08
   1.99355 3.29721e-08
   1.99399 2.13618e-08
   1.99444 1.91819e-09
   1.99488 -2.0796e-08
   1.99533 -4.64846e-08
   1.99577 -7.5262e-08
   1.99622 -1.06612e-07
   1.99666 -1.3918e-07
   1.99711 -1.70783e-07
   1.99755 -1.98438e-07
     1.998 -2.19079e-07
   1.99844 -2.278e-07
   1.99889 -2.07704e-07
   1.99933 -1.33079e-07
   1.99978 -4.18487e-08
         2          0
