         0          0
 0.0002225 3.85513e-08
 0.0006675 1.22983e-07
 0.0011125 1.92121e-07
 0.0015575 2.10608e-07
 0.0020025 2.02549e-07
 0.0024475 1.83471e-07
 0.0028925 1.58086e-07
 0.0033375 1.29448e-07
 0.0037825 1.00191e-07
 0.0042275 7.20641e-08
 0.0046725 4.6144e-08
 0.0051175 2.29274e-08
 0.0055625 2.32397e-09
 0.0060075 -1.55597e-08
 0.0064525 -2.63195e-08
 0.0068975 -2.22205e-08
 0.0073476 -1.15701e-08
0.00781612 -1.93975e-08
0.00831203 -4.76864e-08
0.00883694 -8.63135e-08
0.00939255 -1.32621e-07
0.00998065 -1.88887e-07
 0.0106031 -2.55847e-07
  0.011262 -3.3311e-07
 0.0119594 -4.20777e-07
 0.0126977 -5.19035e-07
  0.013479 -6.3007e-07
 0.0143061 -7.48998e-07
 0.0151815 -8.74314e-07
 0.0161082 -9.93418e-07
  0.017089 -1.09824e-06
 0.0181271 -1.17732e-06
  0.019226 -1.2603e-06
 0.0203891 -1.3925e-06
 0.0216203 -1.56437e-06
 0.0229234 -1.69673e-06
 0.0243028 -1.71741e-06
 0.0257628 -1.64347e-06
 0.0273082 -1.59378e-06
  0.028944 -1.5319e-06
 0.0306754 -1.33311e-06
 0.0325081 -1.03041e-06
 0.0344479 -7.25904e-07
 0.0365012 -1.89138e-07
 0.0386746 -1.31155e-07
  0.040975 -1.45799e-06
   0.04341 -2.7026e-06
 0.0459873 -2.03887e-06
 0.0487154 -5.48455e-07
  0.051603 -5.6215e-08
 0.0546595 -5.30578e-07
 0.0578947 -5.33952e-07
 0.0613191 1.93432e-06
 0.0649437 4.50955e-06
 0.0687803  7.518e-07
 0.0728413 -3.80765e-06
 0.0771397 -4.50064e-06
 0.0816895 -9.40002e-07
 0.0865054 1.43691e-06
 0.0916029 -1.43885e-06
 0.0969985 -8.0638e-06
   0.10271 -4.76089e-06
  0.108755 2.47519e-06
  0.115153 -3.28244e-06
  0.121926 -1.39003e-05
  0.129095 -7.33251e-06
  0.136683 3.44589e-06
  0.144715 1.75463e-06
  0.153216 -3.32232e-06
  0.162214 -2.03213e-05
  0.171739 -7.24703e-06
  0.181821 6.13546e-06
  0.192492 -8.19557e-06
  0.203788 1.8661e-05
  0.215744 -3.80214e-05
  0.228399 2.57698e-05
  0.241794 -4.26453e-05
  0.255972 4.08793e-05
   0.27098 -4.86056e-05
  0.286865 3.64944e-05
  0.304824 -3.05766e-05
  0.324407 -1.41492e-05
  0.343989 4.27869e-05
  0.363571 -4.30826e-05
  0.383154 1.97188e-05
  0.402736 -3.42604e-05
  0.422319 3.01451e-05
  0.441901 -2.1347e-05
  0.461484 2.17221e-05
  0.481066 -1.73324e-05
  0.500648 -1.13667e-05
  0.520231 1.52464e-05
  0.539813 -5.78073e-06
  0.559396 -9.94219e-06
  0.578978 2.66657e-05
   0.59856 -3.06727e-05
  0.618143 1.8632e-05
  0.637725 -1.08333e-05
  0.657308 -8.2382e-06
   0.67689 1.74478e-05
  0.696473 -1.83419e-05
  0.716055 7.75676e-06
  0.735637 7.07984e-06
   0.75522 -1.48867e-05
  0.774802 1.55351e-05
  0.794385 -2.54019e-05
  0.813967 2.12192e-05
  0.833549 -2.43208e-05
  0.853132 1.81689e-05
  0.872714 6.87238e-07
  0.892297 -1.39689e-05
  0.911879 5.1487e-06
  0.931462 -1.87491e-06
  0.951044 -4.9947e-06
  0.970626 1.50542e-05
  0.990209 -7.29327e-07
   1.00979 4.5092e-08
   1.02937 5.05494e-07
   1.04896 6.30818e-06
   1.06854 -1.48049e-05
   1.08812 9.2765e-07
    1.1077 7.52523e-06
   1.12729 -1.26757e-06
   1.14687 5.9463e-06
   1.16645 -1.37241e-05
   1.18603 1.05825e-05
   1.20562 1.05802e-05
    1.2252 2.6688e-06
   1.24478 -3.43456e-06
   1.26436 -1.61625e-05
   1.28395 1.41283e-05
   1.30353 -1.70118e-05
   1.32311 3.9084e-05
   1.34269 -2.72533e-05
   1.36228 1.01226e-05
   1.38186 -9.94872e-06
   1.40144 1.98714e-05
   1.42102 -2.05562e-05
   1.44061 2.08945e-05
   1.46019 -1.62259e-05
   1.47977 4.02001e-05
   1.49935 -3.32503e-05
   1.51894 9.59343e-06
   1.53852 4.35499e-06
    1.5581 -1.02713e-05
   1.57768 3.21483e-06
   1.59727 1.7689e-05
   1.61685 -9.02576e-06
   1.63643 1.30321e-05
   1.65601 -4.85966e-06
    1.6756 3.64963e-05
   1.69518 -3.32261e-05
   1.71314 -8.16397e-06
   1.72902 2.59119e-05
   1.74403 -4.08777e-06
   1.75821 3.1986e-06
    1.7716 -1.62322e-05
   1.78426 3.5455e-05
   1.79621 -3.3316e-07
   1.80751 -3.21161e-06
   1.81818 -1.20371e-06
   1.82826 1.5339e-05
   1.83779 2.68937e-06
   1.84679 9.52876e-06
   1.85529 -4.50847e-06
   1.86332  3.201e-06
   1.87091 6.43953e-06
   1.87808 3.43685e-06
   1.88485 4.96424e-06
   1.89125 -4.0255e-06
   1.89729 -2.43228e-08
     1.903 7.47285e-06
    1.9084 6.09553e-06
    1.9135 5.41253e-06
   1.91831 3.33356e-06
   1.92286 -1.84974e-06
   1.92716 -6.25172e-07
   1.93122 9.85815e-07
   1.93506 8.94301e-07
   1.93868 -1.18081e-06
   1.94211 -1.19495e-06
   1.94534 1.34892e-06
    1.9484 1.48282e-06
   1.95129 -3.32535e-07
   1.95401 -6.2066e-07
   1.95659 -4.92393e-09
   1.95903 3.31294e-07
   1.96133 3.28837e-07
    1.9635 3.70863e-07
   1.96555 6.14493e-07
   1.96749 1.01842e-06
   1.96933 1.39413e-06
   1.97106 1.68979e-06
   1.97269 1.97874e-06
   1.97424 2.10688e-06
    1.9757 2.03374e-06
   1.97708 1.84266e-06
   1.97838 1.67012e-06
   1.97961 1.5597e-06
   1.98077 1.46433e-06
   1.98187 1.35915e-06
   1.98291 1.23662e-06
   1.98389 1.09589e-06
   1.98482 9.42301e-07
   1.98569 7.91273e-07
   1.98652 6.52722e-07
    1.9873 5.3251e-07
   1.98804 4.30023e-07
   1.98874 3.42278e-07
    1.9894 2.65588e-07
   1.99002 1.99035e-07
   1.99061 1.43549e-07
   1.99116 9.63055e-08
   1.99169 5.61208e-08
   1.99218 2.59863e-08
   1.99265 1.75734e-08
    1.9931 2.86841e-08
   1.99355 3.30743e-08
   1.99399 2.14109e-08
   1.99444 1.9485e-09
   1.99488 -2.07765e-08
   1.99533 -4.64232e-08
   1.99577 -7.52013e-08
   1.99622 -1.06545e-07
   1.99666 -1.39097e-07
   1.99711 -1.70733e-07
   1.99755 -1.98426e-07
     1.998 -2.19086e-07
   1.99844 -2.27807e-07
   1.99889 -2.07733e-07
   1.99933 -1.33107e-07
   1.99978 -4.18531e-08
         2          0
