         0          0
 0.0002225 -0.000440981
 0.0006675 -0.00108463
 0.0011125 -0.00153286
 0.0015575 -0.00182927
 0.0020025 -0.00200771
 0.0024475 -0.00209558
 0.0028925 -0.00211553
 0.0033375 -0.00208551
 0.0037825 -0.00201939
 0.0042275 -0.00192773
 0.0046725 -0.00181854
 0.0051175 -0.00169775
 0.0055625 -0.0015697
 0.0060075 -0.00143748
 0.0064525 -0.00130317
 0.0068975 -0.00116786
 0.0073476 -0.00103091
0.00781612 -0.000889835
0.00831203 -0.000743322
0.00883694 -0.000591616
0.00939255 -0.000435227
0.00998065 -0.000275044
 0.0106031 -0.000112252
  0.011262 5.16558e-05
 0.0119594 0.000214853
 0.0126977 0.000375178
  0.013479 0.000530174
 0.0143061 0.000677172
 0.0151815 0.000813406
 0.0161082 0.000936165
  0.017089 0.00104295
 0.0181271 0.00113164
  0.019226 0.00120062
 0.0203891 0.00124891
 0.0216203 0.00127616
 0.0229234 0.00128268
 0.0243028 0.00126937
 0.0257628  0.0012377
 0.0273082 0.00118962
  0.028944 0.00112751
 0.0306754 0.00105438
 0.0325081 0.000972835
 0.0344479 0.000886116
 0.0365012 0.000796891
 0.0386746 0.000707982
  0.040975 0.000622106
   0.04341 0.000541764
 0.0459873 0.000468954
 0.0487154 0.000405051
  0.051603 0.00035086
 0.0546595 0.000306485
 0.0578947 0.000271295
 0.0613191 0.000244013
 0.0649437 0.000222889
 0.0687803 0.000206602
 0.0728413 0.000194026
 0.0771397 0.000183942
 0.0816895 0.000175585
 0.0865054 0.000167682
 0.0916029 0.000159199
 0.0969985 0.00015026
   0.10271 0.000142002
  0.108755 0.000134287
  0.115153 0.000126421
  0.121926 0.000117863
  0.129095 0.000108653
  0.136683 9.97019e-05
  0.144715 9.12724e-05
  0.153216 8.3147e-05
  0.162214 7.6468e-05
  0.171739 7.06225e-05
  0.181821 6.48292e-05
  0.192492 6.05421e-05
  0.203788 5.7007e-05
  0.215744 5.08039e-05
  0.228399 4.68905e-05
  0.241794 4.39001e-05
  0.255972 4.20622e-05
   0.27098 3.56607e-05
  0.286865 3.51397e-05
  0.304824 5.52683e-05
  0.324407 3.87894e-05
  0.343989 2.61832e-05
  0.363571 2.34809e-05
  0.383154 2.01535e-05
  0.402736 1.76977e-05
  0.422319  1.961e-05
  0.441901 1.93714e-05
  0.461484 1.96416e-05
  0.481066 2.1345e-05
  0.500648 2.1684e-05
  0.520231 2.04633e-05
  0.539813 1.91485e-05
  0.559396 1.84028e-05
  0.578978 1.79914e-05
   0.59856 1.66637e-05
  0.618143 1.6565e-05
  0.637725 1.75263e-05
  0.657308 1.78872e-05
   0.67689 1.74592e-05
  0.696473 1.62877e-05
  0.716055 1.54334e-05
  0.735637 1.56129e-05
   0.75522 1.59951e-05
  0.774802 1.58905e-05
  0.794385 1.47174e-05
  0.813967 1.43983e-05
  0.833549 1.46999e-05
  0.853132 1.4618e-05
  0.872714 1.50054e-05
  0.892297 1.60407e-05
  0.911879 1.63268e-05
  0.931462 1.56699e-05
  0.951044 1.52614e-05
  0.970626 1.5515e-05
  0.990209 1.59112e-05
   1.00979 1.62762e-05
   1.02937 1.60715e-05
   1.04896 1.61868e-05
   1.06854 1.65084e-05
   1.08812 1.6308e-05
    1.1077 1.59975e-05
   1.12729 1.60694e-05
   1.14687 1.63709e-05
   1.16645 1.59049e-05
   1.18603 1.45263e-05
   1.20562 1.30941e-05
    1.2252 1.29532e-05
   1.24478 1.37262e-05
   1.26436 1.37074e-05
   1.28395 1.23231e-05
   1.30353 1.21099e-05
   1.32311 1.29713e-05
   1.34269 1.22105e-05
   1.36228 1.27338e-05
   1.38186 1.38092e-05
   1.40144 1.17796e-05
   1.42102 1.08575e-05
   1.44061 1.18761e-05
   1.46019 1.18112e-05
   1.47977 1.17894e-05
   1.49935 1.35641e-05
   1.51894 1.56348e-05
   1.53852 1.71441e-05
    1.5581 1.92998e-05
   1.57768 2.13597e-05
   1.59727 2.49918e-05
   1.61685 2.65159e-05
   1.63643 2.84191e-05
   1.65601 2.98425e-05
    1.6756 3.94988e-05
   1.69518 6.26436e-05
   1.71314 4.45952e-05
   1.72902 4.08614e-05
   1.74403 4.25146e-05
   1.75821 4.37904e-05
    1.7716 4.96963e-05
   1.78426 5.36661e-05
   1.79621 5.75537e-05
   1.80751 6.23273e-05
   1.81818 6.79814e-05
   1.82826 7.20829e-05
   1.83779 7.69517e-05
   1.84679 8.28534e-05
   1.85529 9.10802e-05
   1.86332 9.94314e-05
   1.87091 0.000108099
   1.87808 0.000117248
   1.88485 0.000127375
   1.89125  0.0001388
   1.89729 0.00015019
     1.903 0.00016024
    1.9084 0.000168594
    1.9135 0.00017503
   1.91831 0.00018071
   1.92286 0.000187133
   1.92716 0.000195198
   1.93122 0.000206447
   1.93506 0.000222516
   1.93868 0.000244975
   1.94211 0.000274913
   1.94534 0.000312883
    1.9484 0.000359779
   1.95129 0.000416376
   1.95401 0.000482412
   1.95659 0.000556669
   1.95903 0.000637411
   1.96133 0.000722682
    1.9635 0.000810328
   1.96555 0.000897867
   1.96749 0.000982406
   1.96933 0.00106091
   1.97106 0.00113046
   1.97269 0.00118827
   1.97424  0.0012318
    1.9757  0.0012588
   1.97708 0.00126747
   1.97838 0.00125655
   1.97961 0.00122534
   1.98077 0.00117377
   1.98187 0.00110236
   1.98291 0.00101217
   1.98389 0.000904813
   1.98482 0.000782314
   1.98569 0.000647044
   1.98652 0.000501571
    1.9873 0.000348522
   1.98804 0.00019045
   1.98874 2.97126e-05
    1.9894 -0.000131606
   1.99002 -0.000291743
   1.99061 -0.000449252
   1.99116 -0.000602983
   1.99169 -0.000752075
   1.99218 -0.000896031
   1.99265 -0.00103462
    1.9931 -0.00116913
   1.99355 -0.00130198
   1.99399 -0.00143383
   1.99444 -0.00156357
   1.99488 -0.00168915
   1.99533 -0.00180751
   1.99577 -0.00191435
   1.99622 -0.00200379
   1.99666 -0.00206793
   1.99711 -0.0020963
   1.99755 -0.00207524
     1.998 -0.00198702
   1.99844 -0.00180935
   1.99889 -0.00151528
   1.99933 -0.00107155
   1.99978 -0.000435354
         2          0
