         0          0
 0.0002225 2.53291e-11
 0.0006675 6.22993e-10
 0.0011125 2.71715e-09
 0.0015575 7.15292e-09
 0.0020025 1.4514e-08
 0.0024475 2.51417e-08
 0.0028925 3.91485e-08
 0.0033375 5.64278e-08
 0.0037825 7.66848e-08
 0.0042275 9.94861e-08
 0.0046725 1.24315e-07
 0.0051175 1.50623e-07
 0.0055625 1.77876e-07
 0.0060075 2.05584e-07
 0.0064525 2.33323e-07
 0.0068975 2.60742e-07
 0.0073476 2.87876e-07
0.00781612 3.1525e-07
0.00831203 3.43025e-07
0.00883694 3.70831e-07
0.00939255 3.98193e-07
0.00998065 4.24511e-07
 0.0106031 4.49037e-07
  0.011262 4.70909e-07
 0.0119594 4.89248e-07
 0.0126977 5.03337e-07
  0.013479 5.12855e-07
 0.0143061 5.18049e-07
 0.0151815 5.19783e-07
 0.0161082 5.19373e-07
  0.017089 5.18262e-07
 0.0181271 5.1768e-07
  0.019226 5.18409e-07
 0.0203891 5.20735e-07
 0.0216203 5.24709e-07
 0.0229234 5.30568e-07
 0.0243028 5.38763e-07
 0.0257628 5.49736e-07
 0.0273082 5.64185e-07
  0.028944 5.83356e-07
 0.0306754 6.08366e-07
 0.0325081 6.39597e-07
 0.0344479 6.76111e-07
 0.0365012 7.12609e-07
 0.0386746 7.41908e-07
  0.040975 7.62431e-07
   0.04341 7.75837e-07
 0.0459873 7.87687e-07
 0.0487154 7.95092e-07
  0.051603 7.87042e-07
 0.0546595 7.67386e-07
 0.0578947 7.47286e-07
 0.0613191 7.32999e-07
 0.0649437 7.07088e-07
 0.0687803 6.71118e-07
 0.0728413 6.15922e-07
 0.0771397 5.20665e-07
 0.0816895 4.07798e-07
 0.0865054 3.03878e-07
 0.0916029 2.26166e-07
 0.0969985 1.58725e-07
   0.10271 1.06007e-07
  0.108755 3.9445e-08
  0.115153 -9.10783e-08
  0.121926 -2.24008e-07
  0.129095 -3.31901e-07
  0.136683 -4.22944e-07
  0.144715 -4.99708e-07
  0.153216 -6.03391e-07
  0.162214 -7.30916e-07
  0.171739 -7.93839e-07
  0.181821 -9.34573e-07
  0.192492 -1.042e-06
  0.203788 -1.41375e-06
  0.215744 -1.69353e-06
  0.228399 -1.99802e-06
  0.241794 -1.83275e-06
  0.255972 -2.07326e-06
   0.27098 -2.08984e-06
  0.286865 -2.24194e-06
  0.304824 -2.64723e-06
  0.324407 -2.16535e-06
  0.343989 -2.26156e-06
  0.363571 -1.9085e-06
  0.383154 -1.91766e-06
  0.402736 -1.78601e-06
  0.422319 -1.81139e-06
  0.441901 -1.98517e-06
  0.461484 -2.08722e-06
  0.481066 -2.11353e-06
  0.500648 -2.21082e-06
  0.520231 -2.42654e-06
  0.539813 -2.05167e-06
  0.559396 -2.0005e-06
  0.578978 -1.54592e-06
   0.59856 -1.47048e-06
  0.618143 -1.18234e-06
  0.637725 -1.20158e-06
  0.657308 -8.33193e-07
   0.67689 -1.00509e-06
  0.696473 -9.31164e-07
  0.716055 -7.45972e-07
  0.735637 -8.26911e-07
   0.75522 -8.93737e-07
  0.774802 -1.06081e-06
  0.794385 -1.02325e-06
  0.813967 -9.22483e-07
  0.833549 -9.8519e-07
  0.853132 -9.56443e-07
  0.872714 -8.46038e-07
  0.892297 -9.09005e-07
  0.911879 -9.72945e-07
  0.931462 -8.83789e-07
  0.951044 -9.67208e-07
  0.970626 -9.38357e-07
  0.990209 -9.93935e-07
   1.00979 -7.24414e-07
   1.02937 -5.42641e-07
   1.04896 -3.84841e-07
   1.06854 -1.10566e-07
   1.08812 -6.25078e-08
    1.1077 -6.97613e-09
   1.12729 -7.54328e-09
   1.14687 -1.13076e-07
   1.16645 -5.69274e-08
   1.18603 -7.0008e-08
   1.20562 9.36239e-08
    1.2252 -9.02517e-08
   1.24478 -9.46347e-08
   1.26436 -2.45116e-07
   1.28395 -4.21692e-07
   1.30353 -6.50192e-07
   1.32311 -8.52686e-07
   1.34269 -1.14011e-06
   1.36228 -1.0686e-06
   1.38186 -7.47427e-07
   1.40144 -5.32476e-07
   1.42102 -4.52194e-07
   1.44061 -2.5021e-07
   1.46019 5.06728e-08
   1.47977 5.8799e-07
   1.49935 3.87116e-07
   1.51894 8.67035e-07
   1.53852  7.232e-07
    1.5581 9.74725e-07
   1.57768 1.61143e-06
   1.59727 1.82729e-06
   1.61685 2.54377e-06
   1.63643 2.92883e-06
   1.65601 2.99879e-06
    1.6756 2.79101e-06
   1.69518 2.46139e-06
   1.71314 2.26117e-06
   1.72902  2.178e-06
   1.74403 2.39124e-06
   1.75821 2.37796e-06
    1.7716 2.38436e-06
   1.78426 2.28906e-06
   1.79621 2.38692e-06
   1.80751 2.41208e-06
   1.81818 2.3769e-06
   1.82826 2.48173e-06
   1.83779 2.47161e-06
   1.84679 2.43162e-06
   1.85529 2.35356e-06
   1.86332 2.3039e-06
   1.87091 2.3263e-06
   1.87808 2.42174e-06
   1.88485 2.50553e-06
   1.89125 2.56069e-06
   1.89729 2.6544e-06
     1.903 2.72212e-06
    1.9084 2.74108e-06
    1.9135 2.78552e-06
   1.91831 2.8226e-06
   1.92286 2.81671e-06
   1.92716 2.79324e-06
   1.93122 2.77937e-06
   1.93506 2.75953e-06
   1.93868 2.73638e-06
   1.94211 2.70519e-06
   1.94534 2.67729e-06
    1.9484 2.65253e-06
   1.95129 2.61659e-06
   1.95401 2.57235e-06
   1.95659 2.52537e-06
   1.95903 2.47124e-06
   1.96133 2.41393e-06
    1.9635 2.36065e-06
   1.96555 2.31034e-06
   1.96749 2.25939e-06
   1.96933 2.20744e-06
   1.97106 2.15532e-06
   1.97269 2.1043e-06
   1.97424 2.05586e-06
    1.9757 2.00983e-06
   1.97708 1.96391e-06
   1.97838 1.91585e-06
   1.97961 1.86466e-06
   1.98077 1.8096e-06
   1.98187 1.74953e-06
   1.98291 1.68359e-06
   1.98389 1.61171e-06
   1.98482 1.53453e-06
   1.98569 1.45306e-06
   1.98652 1.36853e-06
    1.9873 1.28227e-06
   1.98804 1.19569e-06
   1.98874 1.11016e-06
    1.9894 1.02682e-06
   1.99002 9.46523e-07
   1.99061 8.69798e-07
   1.99116 7.96905e-07
   1.99169 7.27885e-07
   1.99218 6.62643e-07
   1.99265 6.01024e-07
    1.9931 5.41891e-07
   1.99355 4.83545e-07
   1.99399 4.25477e-07
   1.99444 3.68036e-07
   1.99488 3.11779e-07
   1.99533 2.57485e-07
   1.99577 2.0614e-07
   1.99622 1.58857e-07
   1.99666 1.16755e-07
   1.99711 8.08137e-08
   1.99755 5.1714e-08
     1.998 2.97091e-08
   1.99844 1.45507e-08
   1.99889 5.48099e-09
   1.99933 1.23651e-09
   1.99978 4.51561e-11
         2          0
