         0          0
 0.0002225 4.00299e-08
 0.0006675 1.27395e-07
 0.0011125 1.98958e-07
 0.0015575 2.18282e-07
 0.0020025 2.09938e-07
 0.0024475 1.90116e-07
 0.0028925 1.63596e-07
 0.0033375 1.33388e-07
 0.0037825 1.02352e-07
 0.0042275 7.25483e-08
 0.0046725 4.51904e-08
 0.0051175 2.07629e-08
 0.0055625 -8.70514e-10
 0.0060075 -1.93544e-08
 0.0064525 -3.04076e-08
 0.0068975 -2.59846e-08
 0.0073476 -1.51303e-08
0.00781612 -2.32463e-08
0.00831203 -5.21905e-08
0.00883694 -9.13339e-08
0.00939255 -1.38344e-07
0.00998065 -1.95211e-07
 0.0106031 -2.63685e-07
  0.011262 -3.44578e-07
 0.0119594 -4.38085e-07
 0.0126977 -5.43873e-07
  0.013479 -6.60777e-07
 0.0143061 -7.86731e-07
 0.0151815 -9.18575e-07
 0.0161082 -1.05208e-06
  0.017089 -1.18194e-06
 0.0181271 -1.30217e-06
  0.019226 -1.40628e-06
 0.0203891 -1.48843e-06
 0.0216203 -1.54322e-06
 0.0229234 -1.56711e-06
 0.0243028 -1.55968e-06
 0.0257628 -1.5241e-06
 0.0273082 -1.46425e-06
  0.028944 -1.37921e-06
 0.0306754 -1.25904e-06
 0.0325081 -1.10855e-06
 0.0344479 -9.48348e-07
 0.0365012 -7.86657e-07
 0.0386746 -6.19323e-07
  0.040975 -4.51625e-07
   0.04341 -2.96991e-07
 0.0459873 -1.42376e-07
 0.0487154 -2.42115e-08
  0.051603 -5.55847e-08
 0.0546595 -2.1449e-07
 0.0578947 -3.97485e-07
 0.0613191 -6.14749e-07
 0.0649437 -8.56942e-07
 0.0687803 -1.19019e-06
 0.0728413 -1.54878e-06
 0.0771397 -1.94392e-06
 0.0816895 -2.25664e-06
 0.0865054 -2.55878e-06
 0.0916029 -3.05507e-06
 0.0969985 -3.44942e-06
   0.10271 -3.63074e-06
  0.108755 -3.92543e-06
  0.115153 -3.49873e-06
  0.121926 -4.05093e-06
  0.129095 -4.07902e-06
  0.136683 -3.97862e-06
  0.144715 -3.95316e-06
  0.153216 -4.43398e-06
  0.162214 -4.19557e-06
  0.171739 -4.49153e-06
  0.181821 -3.35022e-06
  0.192492 -5.13167e-06
  0.203788 -1.70082e-06
  0.215744 -7.54514e-06
  0.228399 1.5789e-06
  0.241794 -1.15611e-05
  0.255972 7.67502e-06
   0.27098 -1.99097e-05
  0.286865 1.01862e-05
  0.304824 3.84127e-06
  0.324407 -2.05621e-05
  0.343989 1.01376e-05
  0.363571 -1.25703e-05
  0.383154 5.55127e-06
  0.402736 -7.1603e-06
  0.422319 1.18136e-06
  0.441901 -3.16321e-06
  0.461484 -1.36294e-06
  0.481066 -9.73096e-07
  0.500648 -3.65761e-06
  0.520231 8.1145e-08
  0.539813 -2.63225e-06
  0.559396 -8.75852e-07
  0.578978 -1.922e-06
   0.59856 -9.18783e-07
  0.618143 -1.5971e-06
  0.637725 -6.93413e-07
  0.657308 -9.00728e-07
   0.67689 -1.12003e-06
  0.696473 -1.20094e-06
  0.716055 -1.34577e-06
  0.735637 -1.06522e-06
   0.75522 -1.08539e-06
  0.774802 -1.26152e-06
  0.794385 -7.22858e-07
  0.813967 -4.46778e-07
  0.833549 -3.19999e-09
  0.853132 -1.72106e-06
  0.872714 1.31989e-07
  0.892297 -6.90567e-07
  0.911879 -6.17941e-07
  0.931462 -3.98596e-07
  0.951044 -3.63341e-07
  0.970626 8.45255e-08
  0.990209 1.69901e-07
   1.00979 -3.42531e-07
   1.02937 -2.42112e-08
   1.04896 1.06715e-08
   1.06854 4.44164e-07
   1.08812 6.53436e-07
    1.1077 3.53045e-07
   1.12729 5.01028e-07
   1.14687 9.32468e-07
   1.16645 8.05205e-07
   1.18603 1.12101e-06
   1.20562 1.60897e-06
    1.2252 -3.76084e-07
   1.24478 1.0356e-06
   1.26436 8.03596e-07
   1.28395 1.37179e-06
   1.30353 6.05612e-07
   1.32311 1.73355e-06
   1.34269 1.02616e-06
   1.36228 6.86335e-07
   1.38186 3.28869e-06
   1.40144 1.20257e-07
   1.42102 1.90644e-06
   1.44061 1.1537e-06
   1.46019 6.16481e-07
   1.47977 2.29528e-06
   1.49935 4.77273e-07
   1.51894 3.06577e-06
   1.53852 -2.5372e-07
    1.5581 4.93592e-06
   1.57768 -2.20064e-06
   1.59727 8.48921e-06
   1.61685 -6.71554e-06
   1.63643 1.40355e-05
   1.65601 -1.31918e-05
    1.6756 2.4211e-05
   1.69518 -5.75549e-06
   1.71314 -9.25021e-06
   1.72902 1.8722e-05
   1.74403 -6.53268e-06
   1.75821 9.83477e-06
    1.7716 1.06088e-07
   1.78426 6.64989e-06
   1.79621 1.91485e-06
   1.80751 5.35143e-06
   1.81818 3.30482e-06
   1.82826 4.78871e-06
   1.83779 4.11468e-06
   1.84679 4.05809e-06
   1.85529 4.14208e-06
   1.86332 4.18267e-06
   1.87091 4.05074e-06
   1.87808 4.21451e-06
   1.88485 4.05407e-06
   1.89125 3.55938e-06
   1.89729 3.35457e-06
     1.903 3.19823e-06
    1.9084 3.08495e-06
    1.9135 2.53003e-06
   1.91831 2.11206e-06
   1.92286 1.84356e-06
   1.92716 1.54613e-06
   1.93122 1.16219e-06
   1.93506 7.59363e-07
   1.93868 4.70588e-07
   1.94211 3.20529e-07
   1.94534 2.48084e-07
    1.9484 2.13969e-07
   1.95129 2.07938e-07
   1.95401 2.24832e-07
   1.95659 3.08498e-07
   1.95903 4.5828e-07
   1.96133 6.32843e-07
    1.9635 8.15158e-07
   1.96555 1.00532e-06
   1.96749 1.1825e-06
   1.96933 1.32592e-06
   1.97106 1.43243e-06
   1.97269 1.50945e-06
   1.97424 1.55949e-06
    1.9757 1.58062e-06
   1.97708 1.57318e-06
   1.97838 1.5382e-06
   1.97961 1.47669e-06
   1.98077 1.39144e-06
   1.98187 1.28645e-06
   1.98291 1.16693e-06
   1.98389 1.0384e-06
   1.98482 9.06382e-07
   1.98569 7.75974e-07
   1.98652 6.51268e-07
    1.9873 5.35507e-07
   1.98804 4.30824e-07
   1.98874 3.38399e-07
    1.9894 2.58572e-07
   1.99002 1.91114e-07
   1.99061 1.35156e-07
   1.99116 8.89468e-08
   1.99169 5.05005e-08
   1.99218 2.2124e-08
   1.99265 1.43277e-08
    1.9931 2.51944e-08
   1.99355 2.9585e-08
   1.99399 1.8634e-08
   1.99444 3.35719e-10
   1.99488 -2.10721e-08
   1.99533 -4.52355e-08
   1.99577 -7.22817e-08
   1.99622 -1.01723e-07
   1.99666 -1.32353e-07
   1.99711 -1.62132e-07
   1.99755 -1.88235e-07
     1.998 -2.07694e-07
   1.99844 -2.15794e-07
   1.99889 -1.9656e-07
   1.99933 -1.25777e-07
   1.99978 -3.94952e-08
         2          0
