         0          0
 0.0002225 2.53795e-11
 0.0006675 6.19926e-10
 0.0011125 2.69942e-09
 0.0015575 7.09929e-09
 0.0020025 1.43962e-08
 0.0024475 2.49263e-08
 0.0028925 3.87984e-08
 0.0033375 5.59039e-08
 0.0037825 7.59483e-08
 0.0042275   9.85e-08
 0.0046725 1.23046e-07
 0.0051175 1.49043e-07
 0.0055625 1.75962e-07
 0.0060075 2.03321e-07
 0.0064525 2.30705e-07
 0.0068975 2.57769e-07
 0.0073476 2.84553e-07
0.00781612 3.11575e-07
0.00831203 3.38999e-07
0.00883694 3.66466e-07
0.00939255 3.93514e-07
0.00998065 4.19547e-07
 0.0106031 4.43827e-07
  0.011262 4.65491e-07
 0.0119594 4.83657e-07
 0.0126977 4.97601e-07
  0.013479 5.06989e-07
 0.0143061 5.12051e-07
 0.0151815 5.13632e-07
 0.0161082 5.1302e-07
  0.017089 5.11624e-07
 0.0181271 5.10629e-07
  0.019226 5.10748e-07
 0.0203891 5.12178e-07
 0.0216203 5.14872e-07
 0.0229234 5.18971e-07
 0.0243028 5.24844e-07
 0.0257628 5.32858e-07
 0.0273082 5.43631e-07
  0.028944 5.58339e-07
 0.0306754 5.78032e-07
 0.0325081 6.0312e-07
 0.0344479 6.32747e-07
 0.0365012 6.61728e-07
 0.0386746 6.83096e-07
  0.040975 6.95432e-07
   0.04341 7.00452e-07
 0.0459873 7.03884e-07
 0.0487154 7.03333e-07
  0.051603 6.8855e-07
 0.0546595 6.64072e-07
 0.0578947 6.41977e-07
 0.0613191 6.30914e-07
 0.0649437 6.15442e-07
 0.0687803 5.96813e-07
 0.0728413 5.64902e-07
 0.0771397 4.97247e-07
 0.0816895 4.1733e-07
 0.0865054 3.52909e-07
 0.0916029 3.1848e-07
 0.0969985 2.92326e-07
   0.10271 2.70368e-07
  0.108755 2.20487e-07
  0.115153 9.14365e-08
  0.121926 -5.30876e-08
  0.129095 -1.75383e-07
  0.136683 -2.79379e-07
  0.144715 -3.54599e-07
  0.153216 -4.39241e-07
  0.162214 -5.42882e-07
  0.171739 -5.73792e-07
  0.181821 -6.74928e-07
  0.192492 -7.4565e-07
  0.203788 -1.10831e-06
  0.215744 -1.44228e-06
  0.228399 -1.84714e-06
  0.241794 -1.81827e-06
  0.255972 -2.12247e-06
   0.27098 -2.28101e-06
  0.286865 -2.56035e-06
  0.304824 -3.20137e-06
  0.324407 -2.83467e-06
  0.343989 -2.85761e-06
  0.363571 -2.49309e-06
  0.383154 -2.45565e-06
  0.402736 -2.3053e-06
  0.422319 -2.31125e-06
  0.441901 -2.61751e-06
  0.461484 -2.57981e-06
  0.481066 -2.40634e-06
  0.500648 -2.33743e-06
  0.520231 -2.39699e-06
  0.539813 -1.92574e-06
  0.559396 -1.87039e-06
  0.578978 -1.46805e-06
   0.59856 -1.44775e-06
  0.618143 -1.16984e-06
  0.637725 -1.13184e-06
  0.657308 -7.13488e-07
   0.67689 -9.04459e-07
  0.696473 -8.86722e-07
  0.716055 -7.6985e-07
  0.735637 -9.16258e-07
   0.75522 -9.99553e-07
  0.774802 -1.09011e-06
  0.794385 -9.41735e-07
  0.813967 -7.19821e-07
  0.833549 -6.36289e-07
  0.853132 -5.23993e-07
  0.872714 -3.7144e-07
  0.892297 -4.08983e-07
  0.911879 -4.50997e-07
  0.931462 -3.4335e-07
  0.951044 -3.79798e-07
  0.970626 -2.67958e-07
  0.990209 -2.27794e-07
   1.00979 9.7706e-08
   1.02937 2.82387e-07
   1.04896 4.07552e-07
   1.06854 6.30089e-07
   1.08812 6.00076e-07
    1.1077 5.67967e-07
   1.12729 4.86563e-07
   1.14687 2.95401e-07
   1.16645 2.99997e-07
   1.18603 2.2868e-07
   1.20562 3.47466e-07
    1.2252 1.82939e-07
   1.24478 2.25269e-07
   1.26436 8.41006e-08
   1.28395 -9.66995e-08
   1.30353 -3.33484e-07
   1.32311 -5.92433e-07
   1.34269 -9.57427e-07
   1.36228 -9.76741e-07
   1.38186 -7.46142e-07
   1.40144 -6.38455e-07
   1.42102 -5.99391e-07
   1.44061 -2.93374e-07
   1.46019 1.86248e-07
   1.47977 8.8521e-07
   1.49935 8.05821e-07
   1.51894 1.34213e-06
   1.53852   1.21e-06
    1.5581 1.50323e-06
   1.57768 2.21368e-06
   1.59727 2.39918e-06
   1.61685 3.01331e-06
   1.63643 3.43763e-06
   1.65601 3.59188e-06
    1.6756 3.25631e-06
   1.69518 2.65559e-06
   1.71314 2.1998e-06
   1.72902 1.81191e-06
   1.74403 1.84307e-06
   1.75821 1.72409e-06
    1.7716 1.69324e-06
   1.78426 1.65356e-06
   1.79621 1.82773e-06
   1.80751 1.93464e-06
   1.81818 1.96669e-06
   1.82826 2.11728e-06
   1.83779 2.13898e-06
   1.84679 2.12537e-06
   1.85529 2.06717e-06
   1.86332 2.02464e-06
   1.87091 2.05123e-06
   1.87808 2.15199e-06
   1.88485 2.23992e-06
   1.89125 2.29715e-06
   1.89729 2.39731e-06
     1.903 2.47436e-06
    1.9084 2.50344e-06
    1.9135 2.56333e-06
   1.91831 2.62156e-06
   1.92286 2.63817e-06
   1.92716 2.63596e-06
   1.93122 2.64164e-06
   1.93506 2.6406e-06
   1.93868 2.6359e-06
   1.94211 2.62386e-06
   1.94534 2.61467e-06
    1.9484 2.60656e-06
   1.95129 2.58467e-06
   1.95401 2.55155e-06
   1.95659 2.51264e-06
   1.95903 2.46383e-06
   1.96133 2.40973e-06
    1.9635 2.35816e-06
   1.96555 2.30841e-06
   1.96749 2.25727e-06
   1.96933 2.20474e-06
   1.97106 2.15185e-06
   1.97269 2.09989e-06
   1.97424 2.05036e-06
    1.9757 2.00318e-06
   1.97708 1.95614e-06
   1.97838 1.90707e-06
   1.97961 1.85508e-06
   1.98077 1.7995e-06
   1.98187 1.73924e-06
   1.98291 1.67342e-06
   1.98389 1.60194e-06
   1.98482 1.52535e-06
   1.98569 1.44461e-06
   1.98652 1.36086e-06
    1.9873 1.27538e-06
   1.98804 1.18955e-06
   1.98874 1.1047e-06
    1.9894 1.02198e-06
   1.99002 9.42239e-07
   1.99061 8.66015e-07
   1.99116 7.9357e-07
   1.99169 7.24952e-07
   1.99218 6.60071e-07
   1.99265 5.98773e-07
    1.9931 5.39927e-07
   1.99355 4.81852e-07
   1.99399 4.24043e-07
   1.99444 3.66845e-07
   1.99488 3.1081e-07
   1.99533 2.5672e-07
   1.99577 2.05555e-07
   1.99622 1.58427e-07
   1.99666 1.16456e-07
   1.99711 8.06194e-08
   1.99755 5.15997e-08
     1.998 2.96515e-08
   1.99844 1.45289e-08
   1.99889 5.47691e-09
   1.99933 1.23715e-09
   1.99978 4.54464e-11
         2          0
