         0 -2.22823e-19
 0.0002225 2.87978e-18
 0.0006675 2.13647e-18
 0.0011125 5.10827e-18
 0.0015575 2.72189e-18
 0.0020025 2.48322e-18
 0.0024475 1.35086e-17
 0.0028925 1.94839e-17
 0.0033375 2.99333e-17
 0.0037825 1.80146e-17
 0.0042275 2.20303e-17
 0.0046725 9.38361e-18
 0.0051175 6.16669e-17
 0.0055625 -2.15447e-17
 0.0060075 -5.32054e-17
 0.0064525 -2.40587e-17
 0.0068975 4.73956e-17
 0.0073476 2.30517e-17
0.00781612 -5.21388e-19
0.00831203 5.37088e-17
0.00883694 1.05817e-16
0.00939255 3.87072e-17
0.00998065 7.18098e-17
 0.0106031 4.51719e-17
  0.011262 6.08902e-17
 0.0119594 -1.46613e-17
 0.0126977 1.48455e-17
  0.013479 2.85176e-17
 0.0143061 8.13308e-17
 0.0151815 9.5072e-17
 0.0161082 4.08006e-17
  0.017089 -5.87222e-17
 0.0181271 -6.3078e-17
  0.019226 -7.54348e-18
 0.0203891 1.17312e-17
 0.0216203 6.60057e-17
 0.0229234 7.01044e-17
 0.0243028 1.79687e-17
 0.0257628 6.94957e-17
 0.0273082 4.71289e-17
  0.028944 6.48527e-17
 0.0306754 9.45821e-17
 0.0325081 4.3115e-17
 0.0344479 4.22122e-17
 0.0365012 5.30513e-17
 0.0386746 3.33006e-17
  0.040975 2.5811e-17
   0.04341 2.46803e-17
 0.0459873 1.74073e-17
 0.0487154 1.71496e-16
  0.051603 2.46335e-17
 0.0546595 -3.02863e-17
 0.0578947 4.30622e-17
 0.0613191 2.24555e-17
 0.0649437 -1.70217e-17
 0.0687803 2.84511e-17
 0.0728413 -1.27343e-18
 0.0771397 -1.78779e-17
 0.0816895 -1.18586e-18
 0.0865054 2.1482e-17
 0.0916029 4.2549e-18
 0.0969985 5.34968e-18
   0.10271 2.68147e-17
  0.108755 8.71838e-17
  0.115153 9.51983e-17
  0.121926 -8.35061e-19
  0.129095 2.55853e-17
  0.136683 -2.36541e-17
  0.144715 4.36647e-17
  0.153216 4.95118e-18
  0.162214 1.58171e-17
  0.171739 3.22319e-18
  0.181821 1.01258e-17
  0.192492 5.23591e-17
  0.203788 4.92489e-17
  0.215744 -6.97189e-18
  0.228399 2.25502e-17
  0.241794 2.51747e-18
  0.255972 4.0923e-17
   0.27098 -4.88275e-17
  0.286865 1.86216e-17
  0.304824 2.41967e-17
  0.324407 -4.83084e-17
  0.343989 9.99015e-18
  0.363571 3.59302e-17
  0.383154 3.70546e-17
  0.402736 2.31785e-17
  0.422319 -1.5564e-17
  0.441901 1.17723e-17
  0.461484 -2.48495e-17
  0.481066 -9.29033e-18
  0.500648 8.24243e-17
  0.520231 -4.58899e-17
  0.539813 -3.64292e-20
  0.559396 6.63983e-18
  0.578978 1.37142e-17
   0.59856 -6.92593e-17
  0.618143 3.13723e-17
  0.637725 3.67616e-17
  0.657308 8.42371e-17
   0.67689 1.20286e-19
  0.696473 8.48823e-17
  0.716055 2.9799e-17
  0.735637 -1.77993e-18
   0.75522 -4.13183e-17
  0.774802 -1.17162e-16
  0.794385 3.71788e-17
  0.813967 -4.70504e-18
  0.833549 2.52652e-17
  0.853132 1.81047e-17
  0.872714 1.42229e-16
  0.892297 1.67413e-17
  0.911879 -2.29393e-17
  0.931462 -7.21399e-18
  0.951044 -3.41704e-17
  0.970626 -3.43939e-17
  0.990209 -7.58546e-17
   1.00979 5.12736e-17
   1.02937 3.10909e-17
   1.04896 3.71933e-17
   1.06854 -8.9583e-18
   1.08812 -4.29573e-17
    1.1077 2.03904e-17
   1.12729 -2.03143e-17
   1.14687 -3.0203e-17
   1.16645 -2.43888e-17
   1.18603 5.56741e-18
   1.20562 5.3454e-18
    1.2252 -5.6422e-17
   1.24478 4.52768e-17
   1.26436 1.51033e-17
   1.28395 5.49178e-17
   1.30353 3.65568e-18
   1.32311 -1.56172e-17
   1.34269 -6.56051e-17
   1.36228 -1.00667e-17
   1.38186 4.69543e-17
   1.40144 2.11677e-17
   1.42102  7.107e-17
   1.44061 -5.55457e-17
   1.46019 1.18098e-17
   1.47977 -7.15097e-17
   1.49935 -8.98552e-18
   1.51894 -3.68002e-17
   1.53852 2.79498e-17
    1.5581 4.59267e-17
   1.57768 1.87669e-17
   1.59727 4.99133e-17
   1.61685 -4.43027e-17
   1.63643  4.021e-17
   1.65601 5.13797e-17
    1.6756 6.86028e-18
   1.69518 -4.18244e-17
   1.71314 -1.09576e-17
   1.72902 -1.99479e-17
   1.74403 -1.40027e-18
   1.75821 2.3448e-17
    1.7716 -4.79364e-17
   1.78426 -6.98483e-17
   1.79621 -3.69893e-17
   1.80751 3.34607e-18
   1.81818 -3.68317e-17
   1.82826 -1.82164e-17
   1.83779 -2.2158e-18
   1.84679 -1.97101e-17
   1.85529 1.04292e-17
   1.86332 -1.16285e-17
   1.87091 -3.53328e-19
   1.87808 4.83905e-18
   1.88485 2.13815e-17
   1.89125 -2.21526e-17
   1.89729 2.98075e-17
     1.903 6.72596e-18
    1.9084 7.49661e-17
    1.9135 9.39074e-18
   1.91831 3.92118e-17
   1.92286 1.39147e-17
   1.92716 6.3451e-17
   1.93122 1.71394e-17
   1.93506 5.41449e-18
   1.93868 1.03669e-17
   1.94211 1.48391e-17
   1.94534 2.53005e-17
    1.9484 4.35663e-17
   1.95129 1.1916e-16
   1.95401 4.1117e-17
   1.95659 3.9021e-17
   1.95903 6.89293e-17
   1.96133 7.1799e-17
    1.9635 -1.30081e-16
   1.96555 3.06488e-17
   1.96749 1.14105e-16
   1.96933 -1.12982e-16
   1.97106 3.10932e-17
   1.97269 9.72451e-18
   1.97424 -9.90507e-17
    1.9757 3.14832e-17
   1.97708 -3.53131e-17
   1.97838 2.6275e-16
   1.97961 -3.19517e-16
   1.98077 1.17497e-16
   1.98187 2.51426e-16
   1.98291 -1.17399e-17
   1.98389 -8.3713e-17
   1.98482 -7.86179e-17
   1.98569 5.22149e-17
   1.98652 3.25819e-17
    1.9873 -7.60098e-17
   1.98804 -1.07963e-16
   1.98874 3.9261e-16
    1.9894 -2.71631e-16
   1.99002 1.11101e-16
   1.99061 -1.09115e-17
   1.99116 -4.78683e-16
   1.99169 -5.39951e-17
   1.99218 2.6556e-16
   1.99265 7.51117e-16
    1.9931 -6.95084e-16
   1.99355 2.54532e-16
   1.99399 7.23025e-17
   1.99444 -2.13774e-16
   1.99488 -1.80817e-16
   1.99533 3.2972e-17
   1.99577 1.3617e-16
   1.99622 -1.50121e-16
   1.99666 -1.84539e-16
   1.99711 5.71248e-17
   1.99755 -1.01305e-16
     1.998 5.41266e-17
   1.99844 -4.70342e-17
   1.99889 -2.4994e-17
   1.99933 2.39796e-17
   1.99978 2.14228e-17
         2 2.17969e-17
