         0 0.00405695
 0.0002225 0.00832113
 0.0006675  0.0186492
 0.0011125  0.0294955
 0.0015575  0.0390625
 0.0020025  0.0460326
 0.0024475  0.0496596
 0.0028925  0.0497812
 0.0033375  0.0467292
 0.0037825     0.0412
 0.0042275  0.0341351
 0.0046725  0.0266005
 0.0051175  0.0196335
 0.0055625  0.0140755
 0.0060075  0.0104348
 0.0064525 0.00883271
 0.0068975 0.00904107
 0.0073476  0.0106063
0.00781612  0.0130518
0.00831203  0.0159161
0.00883694  0.0187411
0.00939255  0.0211938
0.00998065  0.0230978
 0.0106031  0.0243749
  0.011262  0.0249514
 0.0119594  0.0247327
 0.0126977  0.0236832
  0.013479  0.0218945
 0.0143061  0.0195243
 0.0151815   0.016706
 0.0161082  0.0136149
  0.017089  0.0105958
 0.0181271  0.0081314
  0.019226 0.00670223
 0.0203891 0.00674594
 0.0216203  0.0087981
 0.0229234  0.0133907
 0.0243028  0.0200666
 0.0257628  0.0268831
 0.0273082  0.0314272
  0.028944  0.0319396
 0.0306754  0.0291969
 0.0325081  0.0267585
 0.0344479  0.0257194
 0.0365012    0.02353
 0.0386746  0.0216821
  0.040975    0.02141
   0.04341  0.0194289
 0.0459873  0.0172583
 0.0487154  0.0182503
  0.051603  0.0200458
 0.0546595  0.0209227
 0.0578947  0.0218799
 0.0613191  0.0184993
 0.0649437  0.0126894
 0.0687803 0.00704568
 0.0728413 0.00300416
 0.0771397 0.000122016
 0.0816895 -0.00119276
 0.0865054 -0.00160993
 0.0916029 -0.000999494
 0.0969985 -0.00303841
   0.10271 -0.00679899
  0.108755 -0.00818745
  0.115153 -0.0012565
  0.121926 0.00675202
  0.129095 0.00853288
  0.136683 0.00740207
  0.144715 0.00542979
  0.153216 0.00430329
  0.162214 0.00348159
  0.171739 0.00203373
  0.181821 -0.00466659
  0.192492 -0.00895182
  0.203788 -0.00898251
  0.215744 -0.00579626
  0.228399 -6.6403e-05
  0.241794 0.00107045
  0.255972 -0.00148107
   0.27098 -0.000438725
  0.286865 -0.00231854
  0.304824 -0.00455559
  0.324407 -0.00804392
  0.343989 -0.00810093
  0.363571 -0.00545019
  0.383154 -0.00730281
  0.402736 -0.00628279
  0.422319 -0.00466067
  0.441901 -0.00287965
  0.461484 -0.00319924
  0.481066  -0.003384
  0.500648 0.000480432
  0.520231 0.00367908
  0.539813 0.00199163
  0.559396 0.00378591
  0.578978 0.00453142
   0.59856 0.00433261
  0.618143 0.00162662
  0.637725 0.00271717
  0.657308 0.00239358
   0.67689 0.00164579
  0.696473 0.000566772
  0.716055 -0.000596025
  0.735637 -0.00162423
   0.75522 -0.00203823
  0.774802 -0.00220082
  0.794385 -0.00149994
  0.813967 -0.00181875
  0.833549 -0.0027098
  0.853132 -0.00248484
  0.872714 -0.00131446
  0.892297 -0.000541458
  0.911879 2.82825e-05
  0.931462 -0.000336467
  0.951044 -0.000922673
  0.970626 -0.00096721
  0.990209 -0.00121346
   1.00979 -0.000726099
   1.02937 9.17224e-05
   1.04896 0.00081364
   1.06854 0.000965251
   1.08812 0.000312511
    1.1077 -0.000496047
   1.12729 -0.000382755
   1.14687 4.55465e-05
   1.16645 -0.000814608
   1.18603 -0.00151007
   1.20562 -0.00243194
    1.2252 -0.00326461
   1.24478 -0.00472026
   1.26436 -0.00556348
   1.28395 -0.00460806
   1.30353 -0.00387373
   1.32311 -0.00289143
   1.34269 -0.00303603
   1.36228 -0.00427371
   1.38186 -0.00434932
   1.40144 -0.00196589
   1.42102 0.000273352
   1.44061 0.000521586
   1.46019 -0.00024581
   1.47977 0.000218638
   1.49935 -0.000900718
   1.51894 -0.00298202
   1.53852 -0.00425483
    1.5581 -0.00211064
   1.57768 0.00158384
   1.59727 0.00316414
   1.61685 0.00315622
   1.63643   0.001104
   1.65601 0.00240835
    1.6756 0.00267917
   1.69518 0.00184218
   1.71314  0.0017616
   1.72902 0.00126628
   1.74403 -0.0062867
   1.75821 -0.0134752
    1.7716 -0.0112836
   1.78426 -0.00708063
   1.79621 -0.00448996
   1.80751 -0.00114705
   1.81818 0.00224397
   1.82826 0.00367837
   1.83779 0.00582572
   1.84679 0.00278836
   1.85529 -0.00271653
   1.86332 -0.00483548
   1.87091 -0.00768309
   1.87808 -0.0116464
   1.88485 -0.0132287
   1.89125 -0.0161629
   1.89729 -0.0188764
     1.903  -0.021209
    1.9084 -0.0266186
    1.9135 -0.0293691
   1.91831 -0.0282808
   1.92286 -0.0288573
   1.92716  -0.029633
   1.93122 -0.0279682
   1.93506 -0.0293539
   1.93868 -0.0344624
   1.94211 -0.0441808
   1.94534  -0.052383
    1.9484 -0.0548855
   1.95129 -0.0572468
   1.95401 -0.0600157
   1.95659 -0.0593676
   1.95903 -0.0545827
   1.96133 -0.0474686
    1.9635 -0.0414533
   1.96555  -0.037516
   1.96749  -0.033201
   1.96933 -0.0284073
   1.97106 -0.0241009
   1.97269 -0.0185179
   1.97424 -0.0104194
    1.9757 -0.00147097
   1.97708 0.00607154
   1.97838    0.01077
   1.97961  0.0122777
   1.98077  0.0114292
   1.98187 0.00960599
   1.98291 0.00808865
   1.98389 0.00784216
   1.98482 0.00921397
   1.98569  0.0119195
   1.98652  0.0153547
    1.9873  0.0187017
   1.98804  0.0209252
   1.98874  0.0209608
    1.9894   0.018002
   1.99002  0.0116588
   1.99061 0.00195231
   1.99116 -0.0107891
   1.99169 -0.0260744
   1.99218 -0.0433917
   1.99265 -0.0623113
    1.9931 -0.0829164
   1.99355  -0.105777
   1.99399  -0.131318
   1.99444  -0.159722
   1.99488  -0.190964
   1.99533  -0.224588
   1.99577  -0.259478
   1.99622  -0.293742
   1.99666  -0.324844
   1.99711   -0.35005
   1.99755  -0.367127
     1.998   -0.37505
   1.99844  -0.374422
   1.99889  -0.367402
   1.99933  -0.357209
   1.99978  -0.347497
         2  -0.344019
