         0  0.0380026
 0.0002225  0.0381194
 0.0006675  0.0385837
 0.0011125    0.03951
 0.0015575  0.0409057
 0.0020025   0.042797
 0.0024475  0.0452295
 0.0028925  0.0482516
 0.0033375  0.0518867
 0.0037825  0.0560986
 0.0042275  0.0607794
 0.0046725  0.0657616
 0.0051175   0.070847
 0.0055625  0.0758345
 0.0060075  0.0805361
 0.0064525  0.0847763
 0.0068975  0.0883858
 0.0073476   0.091221
0.00781612  0.0931266
0.00831203  0.0938492
0.00883694  0.0931035
0.00939255  0.0907179
0.00998065  0.0867321
 0.0106031  0.0814822
  0.011262  0.0755721
 0.0119594  0.0697028
 0.0126977  0.0643944
  0.013479  0.0596602
 0.0143061  0.0548739
 0.0151815  0.0489494
 0.0161082   0.040821
  0.017089  0.0300012
 0.0181271  0.0168902
  0.019226 0.00278663
 0.0203891 -0.0102644
 0.0216203 -0.0198533
 0.0229234 -0.0239912
 0.0243028 -0.0222168
 0.0257628 -0.0164417
 0.0273082 -0.0103113
  0.028944 -0.00678877
 0.0306754 -0.0060563
 0.0325081 -0.00655866
 0.0344479 -0.00778593
 0.0365012 -0.0107904
 0.0386746 -0.0167005
  0.040975 -0.0247849
   0.04341 -0.0322554
 0.0459873 -0.0371483
 0.0487154 -0.0402124
  0.051603 -0.0423693
 0.0546595 -0.0435442
 0.0578947 -0.0428812
 0.0613191 -0.0361059
 0.0649437 -0.0227958
 0.0687803 -0.0112995
 0.0728413 -0.0021402
 0.0771397  0.0092655
 0.0816895  0.0205159
 0.0865054  0.0305882
 0.0916029  0.0352845
 0.0969985  0.0280447
   0.10271  0.0145128
  0.108755 0.00388845
  0.115153 0.00153789
  0.121926 -0.000833963
  0.129095 -0.0165549
  0.136683 -0.0332789
  0.144715 -0.0325254
  0.153216 -0.0128799
  0.162214 0.00682357
  0.171739   0.015061
  0.181821  0.0182995
  0.192492  0.0155236
  0.203788 -0.00335312
  0.215744 -0.0206923
  0.228399 -0.0193649
  0.241794 0.000812746
  0.255972   0.011094
   0.27098 0.00739066
  0.286865 -0.00269519
  0.304824 -0.0283779
  0.324407 -0.0386515
  0.343989 -0.0335232
  0.363571  -0.012645
  0.383154 0.00752604
  0.402736  0.0181602
  0.422319  0.0429588
  0.441901  0.0508825
  0.461484  0.0196638
  0.481066 -0.00703933
  0.500648 -0.0116152
  0.520231 -0.0200449
  0.539813 -0.0263749
  0.559396 -0.0182022
  0.578978 -0.0119261
   0.59856 -0.00600241
  0.618143 0.00839796
  0.637725  0.0192258
  0.657308  0.0137503
   0.67689 -0.00102339
  0.696473 0.000970368
  0.716055  0.0125386
  0.735637 0.00597254
   0.75522 -0.00634451
  0.774802 -0.0102251
  0.794385 -0.0200759
  0.813967  -0.029063
  0.833549 -0.0260818
  0.853132 -0.0169938
  0.872714 -0.00449391
  0.892297 -0.00193475
  0.911879 -0.0065535
  0.931462 0.000396835
  0.951044 0.00557498
  0.970626 -0.00237437
  0.990209 -0.00648532
   1.00979 -5.60927e-05
   1.02937 0.00365825
   1.04896  0.0050605
   1.06854  0.0135667
   1.08812  0.0176405
    1.1077  0.0182168
   1.12729  0.0229592
   1.14687  0.0198741
   1.16645   0.015343
   1.18603  0.0197353
   1.20562  0.0200423
    1.2252  0.0197944
   1.24478  0.0205872
   1.26436   0.013524
   1.28395 -0.00461735
   1.30353 -0.0268071
   1.32311  -0.031957
   1.34269 -0.0152579
   1.36228 -0.00666694
   1.38186 -0.0114434
   1.40144 -0.00898641
   1.42102 -0.0210804
   1.44061 -0.0408343
   1.46019 -0.0412897
   1.47977  -0.018051
   1.49935  0.0180502
   1.51894  0.0324324
   1.53852  0.0142496
    1.5581 -0.0138839
   1.57768 -0.0208744
   1.59727 0.00293632
   1.61685  0.0383372
   1.63643  0.0584323
   1.65601  0.0447767
    1.6756  0.0348777
   1.69518  0.0378701
   1.71314  0.0358994
   1.72902  0.0221923
   1.74403 -0.0136165
   1.75821 -0.0313865
    1.7716 -0.0163362
   1.78426 -0.00170458
   1.79621 -0.00213432
   1.80751 -0.00980017
   1.81818 -0.0209405
   1.82826  -0.033985
   1.83779 -0.0419678
   1.84679 -0.0342009
   1.85529 -0.0216243
   1.86332 -0.0235771
   1.87091 -0.0341017
   1.87808  -0.038416
   1.88485 -0.0266854
   1.89125 -0.0103365
   1.89729  0.0026396
     1.903  0.0219928
    1.9084  0.0375403
    1.9135   0.036331
   1.91831  0.0257512
   1.92286  0.0172398
   1.92716   0.014491
   1.93122  0.0138332
   1.93506  0.0133971
   1.93868  0.0180996
   1.94211  0.0315182
   1.94534  0.0510245
    1.9484  0.0685712
   1.95129  0.0773058
   1.95401  0.0823057
   1.95659  0.0901391
   1.95903  0.0970247
   1.96133   0.100179
    1.9635   0.101675
   1.96555  0.0998872
   1.96749  0.0915783
   1.96933  0.0787107
   1.97106  0.0667641
   1.97269  0.0578451
   1.97424  0.0492432
    1.9757  0.0376637
   1.97708  0.0219776
   1.97838 0.00292867
   1.97961 -0.0177986
   1.98077  -0.038326
   1.98187 -0.0572365
   1.98291 -0.0739387
   1.98389 -0.0884841
   1.98482  -0.101114
   1.98569  -0.112068
   1.98652  -0.121611
    1.9873  -0.130073
   1.98804  -0.137834
   1.98874  -0.145266
    1.9894  -0.152661
   1.99002  -0.160205
   1.99061  -0.167946
   1.99116  -0.175796
   1.99169  -0.183567
   1.99218  -0.191011
   1.99265  -0.197881
    1.9931   -0.20407
   1.99355  -0.209542
   1.99399  -0.214145
   1.99444  -0.217703
   1.99488  -0.220121
   1.99533    -0.2214
   1.99577  -0.221643
   1.99622  -0.221037
   1.99666  -0.219817
   1.99711  -0.218236
   1.99755  -0.216523
     1.998   -0.21486
   1.99844  -0.213378
   1.99889  -0.212172
   1.99933  -0.211312
   1.99978  -0.210858
         2  -0.210739
