         0 -1.81628e-17
 0.0002225 -4.11324e-18
 0.0006675 -3.08595e-17
 0.0011125 3.62038e-17
 0.0015575 1.22071e-16
 0.0020025 -4.25449e-17
 0.0024475 -2.20319e-16
 0.0028925 -9.26481e-18
 0.0033375 3.88654e-16
 0.0037825 3.39589e-16
 0.0042275 -3.88276e-16
 0.0046725 -4.93137e-16
 0.0051175 1.10547e-16
 0.0055625 5.63516e-17
 0.0060075 3.01785e-16
 0.0064525 -1.161e-16
 0.0068975 -1.62365e-16
 0.0073476 1.06901e-16
0.00781612 -1.37282e-16
0.00831203 4.26676e-16
0.00883694 4.93228e-16
0.00939255 5.68345e-17
0.00998065 5.58047e-16
 0.0106031 1.33218e-16
  0.011262 5.01248e-16
 0.0119594 -1.0572e-16
 0.0126977 -5.83533e-18
  0.013479 1.1287e-16
 0.0143061 6.7792e-16
 0.0151815 5.47562e-16
 0.0161082 8.17479e-17
  0.017089 3.46247e-16
 0.0181271 7.4448e-16
  0.019226 7.58815e-16
 0.0203891 -1.88303e-16
 0.0216203 2.40465e-16
 0.0229234 6.31495e-17
 0.0243028 -4.68736e-16
 0.0257628 -6.97309e-16
 0.0273082 -5.63563e-16
  0.028944 -3.64064e-16
 0.0306754 -1.49205e-16
 0.0325081 -3.89018e-16
 0.0344479 -6.80647e-16
 0.0365012 -4.52141e-16
 0.0386746 1.86322e-16
  0.040975 5.15032e-17
   0.04341 -1.80589e-16
 0.0459873 -4.87203e-16
 0.0487154 -2.54488e-16
  0.051603 1.94817e-16
 0.0546595 6.13781e-16
 0.0578947 2.25528e-16
 0.0613191 -2.84105e-16
 0.0649437 2.02116e-17
 0.0687803 4.04223e-16
 0.0728413 4.47349e-16
 0.0771397 9.44578e-17
 0.0816895 -1.96563e-16
 0.0865054 1.50759e-16
 0.0916029 -8.88178e-18
 0.0969985 -4.28235e-17
   0.10271 -4.43094e-16
  0.108755 1.07557e-16
  0.115153 1.28095e-16
  0.121926 -3.9545e-17
  0.129095 -3.72109e-16
  0.136683 -3.64826e-16
  0.144715 -4.76146e-16
  0.153216 -2.95109e-16
  0.162214 -1.7569e-16
  0.171739 -1.04401e-16
  0.181821 1.91922e-16
  0.192492 -9.19687e-17
  0.203788 4.64153e-16
  0.215744 1.33085e-16
  0.228399 -3.93152e-17
  0.241794 5.63549e-18
  0.255972 9.79661e-18
   0.27098 1.44644e-16
  0.286865 1.73968e-16
  0.304824 3.49396e-16
  0.324407 6.38094e-17
  0.343989 5.6323e-17
  0.363571 2.00518e-16
  0.383154 -1.06084e-16
  0.402736 1.18652e-16
  0.422319 -9.43423e-17
  0.441901 -1.44029e-16
  0.461484 -1.39555e-16
  0.481066 -6.95666e-18
  0.500648 2.86073e-16
  0.520231 -9.91907e-17
  0.539813 8.22331e-17
  0.559396 1.9579e-16
  0.578978 1.19476e-16
   0.59856 -3.08509e-17
  0.618143 8.62865e-17
  0.637725 -8.23919e-17
  0.657308 1.22229e-16
   0.67689 1.5794e-17
  0.696473 5.64038e-17
  0.716055 -2.64899e-18
  0.735637 5.46008e-18
   0.75522 -9.22873e-18
  0.774802 -2.54518e-16
  0.794385 -7.08711e-17
  0.813967 -8.87446e-17
  0.833549 -2.87703e-17
  0.853132 -3.59734e-17
  0.872714 1.28888e-16
  0.892297 7.91767e-17
  0.911879 1.32935e-17
  0.931462 -4.55019e-17
  0.951044 -9.1625e-17
  0.970626 -3.00593e-17
  0.990209 -6.45273e-17
   1.00979 -6.39322e-18
   1.02937 -6.32072e-17
   1.04896 -4.6918e-18
   1.06854 -2.3398e-18
   1.08812 -2.27124e-18
    1.1077 3.73243e-18
   1.12729 9.78445e-17
   1.14687 -4.35926e-17
   1.16645 -1.22717e-16
   1.18603 1.32822e-16
   1.20562 -7.25819e-17
    1.2252 -4.01401e-17
   1.24478 1.19731e-16
   1.26436 1.11773e-16
   1.28395 -5.18671e-17
   1.30353 -4.04037e-17
   1.32311 1.50473e-17
   1.34269 -9.43198e-17
   1.36228 -1.78698e-16
   1.38186 6.72162e-17
   1.40144 -1.42467e-16
   1.42102 -2.20851e-16
   1.44061 -5.71046e-17
   1.46019 -2.07127e-16
   1.47977 -6.34523e-17
   1.49935 -2.22739e-16
   1.51894 -8.38063e-17
   1.53852 -1.44866e-16
    1.5581 9.22604e-17
   1.57768 1.34992e-16
   1.59727 -5.75084e-17
   1.61685 -4.94096e-16
   1.63643 -1.17386e-16
   1.65601 3.85025e-17
    1.6756 1.5189e-17
   1.69518 1.34289e-16
   1.71314 1.53001e-16
   1.72902 1.60968e-16
   1.74403 -1.23478e-16
   1.75821 1.13782e-16
    1.7716 -2.98833e-17
   1.78426 -4.92939e-19
   1.79621 5.24002e-16
   1.80751 -7.39309e-17
   1.81818 -8.36065e-17
   1.82826 1.39955e-16
   1.83779 -7.11808e-17
   1.84679 -4.88198e-17
   1.85529 8.22509e-17
   1.86332 -2.94517e-16
   1.87091 3.09289e-16
   1.87808 5.45977e-16
   1.88485 3.8612e-16
   1.89125 2.61444e-16
   1.89729 1.68371e-16
     1.903 2.92614e-16
    1.9084 -5.96856e-17
    1.9135 1.7694e-16
   1.91831 -1.71897e-16
   1.92286 -1.65423e-17
   1.92716 1.66871e-16
   1.93122 -2.37971e-17
   1.93506 1.21351e-16
   1.93868 -1.16235e-16
   1.94211 -6.04439e-16
   1.94534 -2.73437e-16
    1.9484 -1.34582e-15
   1.95129 -3.09044e-16
   1.95401 2.31379e-16
   1.95659 -1.15471e-15
   1.95903 -7.58906e-16
   1.96133 -3.41795e-16
    1.9635 -5.22906e-16
   1.96555 -5.50981e-16
   1.96749 -2.56668e-15
   1.96933 2.48852e-15
   1.97106 3.42704e-16
   1.97269 -1.67659e-15
   1.97424 -3.98941e-15
    1.9757 -3.74047e-16
   1.97708 3.62633e-15
   1.97838 -4.61066e-15
   1.97961 -8.73897e-16
   1.98077 2.82878e-15
   1.98187 -1.46288e-15
   1.98291 2.11323e-15
   1.98389 1.49246e-15
   1.98482 -5.32765e-15
   1.98569 -2.00668e-15
   1.98652 -1.24096e-15
    1.9873 4.89875e-15
   1.98804 -2.55378e-15
   1.98874 2.69374e-15
    1.9894 -4.76958e-15
   1.99002 1.47565e-15
   1.99061 3.49239e-15
   1.99116 -3.01457e-16
   1.99169 2.21568e-15
   1.99218 -3.26622e-15
   1.99265 -1.41525e-15
    1.9931 4.07803e-15
   1.99355 7.12825e-16
   1.99399 -1.24937e-15
   1.99444 -3.82691e-15
   1.99488 6.67369e-15
   1.99533 1.6527e-15
   1.99577 6.61918e-16
   1.99622 1.43398e-15
   1.99666 -4.93437e-15
   1.99711 2.45058e-15
   1.99755 -3.80928e-16
     1.998 1.76512e-15
   1.99844 -8.99968e-16
   1.99889 -2.09488e-16
   1.99933 8.38808e-17
   1.99978 -2.8253e-16
         2 -3.37754e-16
