         0 0.000786057
 0.0002225 0.000738001
 0.0006675 0.00190418
 0.0011125 0.00249332
 0.0015575 0.00237815
 0.0020025 0.00151003
 0.0024475 -8.97681e-05
 0.0028925 -0.00234576
 0.0033375 -0.00514713
 0.0037825 -0.00836678
 0.0042275 -0.0118764
 0.0046725 -0.0155581
 0.0051175 -0.0193106
 0.0055625 -0.0230516
 0.0060075 -0.0267209
 0.0064525 -0.0302784
 0.0068975 -0.0337023
 0.0073476 -0.0370234
0.00781612 -0.0403342
0.00831203 -0.0436903
0.00883694 -0.0470928
0.00939255 -0.0505477
0.00998065 -0.0540626
 0.0106031 -0.0576388
  0.011262 -0.0612653
 0.0119594 -0.0649094
 0.0126977 -0.0685011
  0.013479 -0.0719144
 0.0143061 -0.0749527
 0.0151815 -0.0773565
 0.0161082 -0.0788415
  0.017089 -0.0791616
 0.0181271 -0.0781717
  0.019226 -0.0758609
 0.0203891 -0.0723304
 0.0216203 -0.0677325
 0.0229234 -0.0622521
 0.0243028 -0.0561934
 0.0257628 -0.0501294
 0.0273082 -0.0448027
  0.028944 -0.0406008
 0.0306754 -0.0371709
 0.0325081 -0.0337871
 0.0344479  -0.030144
 0.0365012 -0.0265265
 0.0386746  -0.023512
  0.040975 -0.0213888
   0.04341 -0.0194064
 0.0459873 -0.0168224
 0.0487154 -0.0140936
  0.051603 -0.0117072
 0.0546595 -0.00950795
 0.0578947 -0.00745517
 0.0613191 -0.00606597
 0.0649437 -0.00499428
 0.0687803 -0.0036365
 0.0728413 -0.00240752
 0.0771397 -0.00223555
 0.0816895 -0.00305233
 0.0865054 -0.00363804
 0.0916029 -0.00407763
 0.0969985 -0.00504031
   0.10271 -0.00641069
  0.108755 -0.00688528
  0.115153 -0.00644116
  0.121926 -0.00614142
  0.129095 -0.00601541
  0.136683 -0.0054112
  0.144715 -0.00565724
  0.153216 -0.00739722
  0.162214 -0.00869541
  0.171739 -0.0101033
  0.181821 -0.0104688
  0.192492 -0.0114647
  0.203788 -0.0144966
  0.215744 -0.0162684
  0.228399 -0.0134225
  0.241794 -0.00985075
  0.255972 -0.00888248
   0.27098 -0.0104058
  0.286865 -0.0117034
  0.304824 -0.00902775
  0.324407 -0.0071112
  0.343989 -0.00625685
  0.363571 -0.00480078
  0.383154 -0.0049771
  0.402736 -0.00573021
  0.422319 -0.00564383
  0.441901 -0.00578896
  0.461484 -0.00705611
  0.481066 -0.00568795
  0.500648 -0.00382141
  0.520231 -0.00296824
  0.539813 -0.00181731
  0.559396 0.00117507
  0.578978 0.00350579
   0.59856 0.00435278
  0.618143   0.004635
  0.637725 0.00439172
  0.657308 0.00467652
   0.67689 0.00453338
  0.696473 0.00448342
  0.716055 0.00527495
  0.735637 0.00502039
   0.75522 0.00429948
  0.774802 0.00417214
  0.794385 0.00428381
  0.813967 0.00435297
  0.833549 0.00409132
  0.853132 0.00369468
  0.872714 0.00358267
  0.892297 0.00406822
  0.911879 0.00454552
  0.931462 0.00417859
  0.951044 0.00397567
  0.970626 0.00411063
  0.990209 0.00434854
   1.00979 0.00460415
   1.02937  0.0049901
   1.04896 0.00541669
   1.06854  0.0061419
   1.08812 0.00670632
    1.1077 0.00666045
   1.12729 0.00637012
   1.14687   0.005652
   1.16645  0.0052806
   1.18603 0.00618378
   1.20562 0.00666025
    1.2252 0.00617559
   1.24478 0.00503045
   1.26436 0.00379642
   1.28395 0.00166788
   1.30353 -0.00100811
   1.32311 -0.00344268
   1.34269 -0.00468946
   1.36228 -0.00572054
   1.38186 -0.00559592
   1.40144 -0.0056997
   1.42102 -0.00634947
   1.44061 -0.00713418
   1.46019 -0.00672219
   1.47977 -0.00786655
   1.49935 -0.00807465
   1.51894 -0.00740426
   1.53852 -0.00841487
    1.5581 -0.00921599
   1.57768 -0.00772795
   1.59727 -0.00534606
   1.61685 -0.00212796
   1.63643 0.00256056
   1.65601  0.0048054
    1.6756 0.00163609
   1.69518 -0.000300859
   1.71314 0.00127713
   1.72902 0.00479248
   1.74403 0.00830487
   1.75821  0.0112034
    1.7716  0.0118389
   1.78426   0.011055
   1.79621 0.00928844
   1.80751 0.00545393
   1.81818 0.00153276
   1.82826 -0.00167657
   1.83779 -0.00593314
   1.84679 -0.0081921
   1.85529 -0.00764968
   1.86332 -0.00570565
   1.87091 -0.00360625
   1.87808 -0.00113143
   1.88485 0.00130169
   1.89125 0.00381329
   1.89729 0.00664612
     1.903  0.0101379
    1.9084  0.0145484
    1.9135  0.0183822
   1.91831  0.0216798
   1.92286  0.0252041
   1.92716  0.0281292
   1.93122  0.0305094
   1.93506  0.0338665
   1.93868  0.0387962
   1.94211  0.0442322
   1.94534  0.0485588
    1.9484  0.0513401
   1.95129  0.0534058
   1.95401  0.0548684
   1.95659  0.0542314
   1.95903  0.0511202
   1.96133  0.0473414
    1.9635  0.0443047
   1.96555  0.0416472
   1.96749  0.0385967
   1.96933  0.0349849
   1.97106  0.0310745
   1.97269  0.0272644
   1.97424  0.0238483
    1.9757  0.0209503
   1.97708  0.0186016
   1.97838  0.0167075
   1.97961  0.0149991
   1.98077  0.0130965
   1.98187  0.0106383
   1.98291 0.00739999
   1.98389 0.00334724
   1.98482 -0.00138954
   1.98569 -0.00657744
   1.98652  -0.011921
    1.9873  -0.017091
   1.98804 -0.0217606
   1.98874 -0.0256486
    1.9894  -0.028562
   1.99002 -0.0304174
   1.99061 -0.0312381
   1.99116 -0.0311297
   1.99169 -0.0302462
   1.99218 -0.0287581
   1.99265 -0.0268241
    1.9931 -0.0245325
   1.99355 -0.0218994
   1.99399 -0.0189478
   1.99444 -0.0157274
   1.99488 -0.0123016
   1.99533 -0.00875685
   1.99577 -0.00520993
   1.99622 -0.00180736
   1.99666 0.00128034
   1.99711 0.00386988
   1.99755 0.00578119
     1.998 0.00685713
   1.99844 0.00698484
   1.99889 0.00611671
   1.99933 0.00428467
   1.99978 0.00160315
         2   0.001687
